# Reference output for tests. Not shown to readers.
# source,data\emg\santuz2021_demo.csv
# generator,"scipy 1.15.2, scripts/make_emg_reference.py"
# pipeline,"butter(4,50Hz,high)+filtfilt -> abs -> butter(4,20Hz,low)+filtfilt -> clip -> minus min"
# padlen,15
# sampling_rate_hz,1000
sample_index,time_s,ta_hp,ta_env,gm_hp,gm_env,rf_hp,rf_env
0,0,0.000346037519,4.392126623e-05,-0.0001946664022,0,8.868240222e-05,0
5,0.005,0.01866553117,0.007444297235,0.06209112678,0.03324071817,0.0008204898826,0.001696263794
10,0.01,0.0372576346,0.01312960004,-0.1166355562,0.06763931766,0.000403507277,0.00320581401
15,0.015,-0.02581839402,0.01649418561,0.03488372775,0.09539038993,0.001797569894,0.004289345066
20,0.02,-0.01021797776,0.0175235914,-0.1312849457,0.1153325694,0.001669659594,0.004884247199
25,0.025,0.0007097092224,0.01668809833,0.0122591537,0.128758669,0.004184218438,0.005061048255
30,0.03,0.0183846546,0.01469454716,-0.07741108727,0.1379078009,0.002358720492,0.004950561045
35,0.035,-0.003793455397,0.01225316781,0.1628748924,0.1444902365,-0.006683586848,0.00468204142
40,0.04,0.01889119924,0.009936778513,-0.2307271082,0.148843437,0.005768105196,0.004366644521
45,0.045,-0.01895297532,0.00812185936,0.1647949427,0.1500533815,-0.001776832288,0.004119417229
50,0.05,0.008031173799,0.006992607862,-0.1428866503,0.1469191907,0.012565586,0.004077122314
55,0.055,-0.003961647757,0.006574145136,-0.08484969006,0.1391938676,-0.001043264195,0.004386666111
60,0.06,-0.009891677247,0.006763744702,0.3411359987,0.1285138145,0.005873215795,0.005164183933
65,0.065,-0.01300916484,0.007367510897,0.05902155677,0.1183940317,-0.003666037698,0.006435068921
70,0.07,0.01075083441,0.008167906468,0.1074011666,0.1129389213,0.01030113099,0.008086201888
75,0.075,-0.01741542661,0.009012907517,0.01624243684,0.1147434638,0.01068699531,0.009862597328
80,0.08,0.01038231795,0.009869298676,0.09084472587,0.1232136481,-0.01526945427,0.01142254935
85,0.085,-0.0131318681,0.01079460606,0.07591887757,0.1344220687,0.01239063405,0.01243995398
90,0.09,0.005453451629,0.0118572055,-0.1744501716,0.1427074632,0.01262874063,0.01271602303
95,0.095,0.028771929,0.01308352534,0.2692652303,0.1432683403,0.006413756454,0.01225357037
100,0.1,0.005122566617,0.01447380744,-0.1244829084,0.1343691261,-0.0003132139357,0.01127301055
105,0.105,0.03204643201,0.01604937563,-0.05814949006,0.1177378007,0.01359243455,0.0101583138
110,0.11,0.01457768134,0.01785892622,0.05585074435,0.09710929011,-0.003443219992,0.009339019221
115,0.115,-0.03037180023,0.01990456949,-0.04729725969,0.07636984847,-0.002564317638,0.00914483493
120,0.12,0.01035117105,0.02202287495,0.1533934701,0.05838924112,-0.006539516462,0.009668236773
125,0.125,0.02861030694,0.02381829052,0.02863074056,0.04464003716,0.007011693084,0.01069470409
130,0.13,-0.04498824971,0.02474450634,-0.05957575513,0.03534599686,0.01900753784,0.01176411519
135,0.135,0.02175321167,0.02435609856,-0.02691542751,0.02990114801,-0.01907903313,0.01236476983
140,0.14,0.01204603164,0.0225845105,0.04292389743,0.02734467534,0.03482630633,0.01216496239
145,0.145,-0.03194243368,0.01982679586,-0.01280393317,0.02672714866,0.003560658967,0.0111419493
150,0.15,0.001435811598,0.01676425981,-0.004167766244,0.02726123087,0.002806947748,0.00954850462
155,0.155,-2.083612492e-05,0.01403414082,0.007940083231,0.02827471256,-0.005496031997,0.007777098872
160,0.16,-0.02214185713,0.01198465762,-0.07519457014,0.02913743961,0.0006061039898,0.00622018263
165,0.165,-0.0004254079537,0.01064222434,0.02251721102,0.02930024231,0.009750204269,0.005183605529
170,0.17,-0.002900958062,0.009836406832,-0.06431456585,0.02839048971,-0.004293193347,0.004868570891
175,0.175,-0.02884077532,0.009347795299,0.07900854806,0.02628588063,0.01926762469,0.005403901495
180,0.18,0.009361030607,0.008997710685,0.01229532237,0.02314726368,-0.02718825477,0.006881009677
185,0.185,-0.003656921077,0.008670744062,0.007168287073,0.01936323305,0.02406309105,0.009334262892
190,0.19,-0.005621408962,0.008299542265,-0.02684191364,0.01541515245,-0.001255460447,0.01263256451
195,0.195,-0.009853260083,0.007852852989,0.01214473231,0.01174462005,-0.007782436725,0.01634188609
200,0.2,0.02811089863,0.00734399559,-0.01481035559,0.008668118263,-0.004318384445,0.01970164763
205,0.205,0.006445685079,0.006837279435,0.00360316493,0.006346101655,0.004780161687,0.02182861431
210,0.21,-0.006162211877,0.006421543311,-0.007453427674,0.004801858526,0.0157191335,0.02213850833
215,0.215,-0.007707615834,0.006147743136,-0.004130217897,0.003955384017,-0.007734328843,0.02079196794
220,0.22,0.006280317961,0.005970056157,-0.0001344917273,0.003657032728,-0.005009084178,0.01883800949
225,0.225,0.0003061059264,0.00573616457,-0.009787951768,0.003724784017,0.005387205106,0.01786050973
230,0.23,-0.001211363429,0.005242820076,-0.005850200058,0.003979401322,-0.01565275003,0.01930177037
235,0.235,0.009742569253,0.004343911897,0.01144060588,0.004271933139,0.01139610609,0.02382422405
240,0.24,5.979804533e-05,0.003080690086,0.004990991803,0.00450361846,0.01882305465,0.03099700429
245,0.245,0.003493453059,0.001789981374,-0.00300259685,0.004637306409,-0.02441410617,0.03944771831
250,0.25,0.004341983858,0.001138104041,0.0107137534,0.004692423106,-0.03327137206,0.04742228209
255,0.255,-0.002918654939,0.002030780483,0.0001968519249,0.004718340082,0.01322375291,0.05347172133
260,0.26,0.0003631762145,0.005369064462,0.01040113556,0.004758215147,0.01008475147,0.05687019464
265,0.265,0.001229442144,0.01168640976,-0.007626924331,0.004823994387,-0.02153826281,0.05751440568
270,0.27,-0.01057390406,0.02079428693,-0.0005649763057,0.004893508525,0.09111974326,0.05550291786
275,0.275,-0.05073504231,0.03162639945,-0.003310206047,0.004927308839,-0.09987398096,0.05090908557
280,0.28,-0.01235315772,0.04242606135,-0.004896146785,0.004898349194,0.05979382234,0.04393985298
285,0.285,-0.04183542074,0.0512712238,0.008147459466,0.004815759511,-0.05288403198,0.03519015783
290,0.29,-0.0351097377,0.05673868922,0.0009872110252,0.004725210173,-0.004072420151,0.02569578763
295,0.295,0.1307585071,0.05837551833,6.438461263e-05,0.004690031866,0.01981829356,0.0167575178
300,0.3,-0.05295548549,0.05674637578,0.007375553248,0.004763864801,-0.009302399434,0.009636063616
305,0.305,0.01996433088,0.05312031455,0.001846340947,0.004962817002,-0.005595448423,0.005227394198
310,0.31,0.01571622235,0.04901526319,-0.01289734179,0.005247579386,0.0004810898952,0.003830194647
315,0.315,0.08200325352,0.0457705613,0.003678988347,0.005524789115,0.00744089388,0.005075339416
320,0.32,-0.02869685893,0.04423364558,-0.0094927528,0.005671802079,-0.002263257811,0.008025357305
325,0.325,0.05254308572,0.04458692683,0.007204788092,0.00558304324,-0.01189760321,0.0114183014
330,0.33,-0.1101161465,0.04629055651,-0.003161986234,0.005223289139,0.006418814856,0.0140160611
335,0.335,-0.002777791873,0.04817560194,0.001129100882,0.004655771402,-0.0154947607,0.0149758957
340,0.34,-0.03562786704,0.04876038269,0.001577016683,0.004021870994,-0.01153208593,0.01409787931
345,0.345,0.1986601582,0.04683018005,0.003215583506,0.003485431423,0.006757760986,0.01181117378
350,0.35,-0.02487422035,0.04211835896,-0.002099362841,0.003175475558,0.003577294746,0.008914737539
355,0.355,-0.01404715188,0.03558532708,-0.00322224572,0.003148756714,-0.01114589736,0.006227327185
360,0.36,-0.004370725036,0.02900534427,0.001753316368,0.003378604214,0.005141677328,0.004313542315
365,0.365,0.0201551978,0.02422970907,0.0004673967036,0.003774052852,0.002827609578,0.003374672534
370,0.37,0.01911310372,0.02257994754,0.004777153472,0.004218249782,0.0004994583979,0.003294337881
375,0.375,-0.03847985726,0.02451931089,0.003623475669,0.004604295481,0.005567887266,0.003771348052
380,0.38,0.03537760189,0.02960823069,0.01333825867,0.004859634085,0.0007328773065,0.004464035853
385,0.385,0.01450991476,0.03669721846,0.003650806342,0.004955628102,0.008353573107,0.005094960064
390,0.39,-0.02979707935,0.04424519016,-0.006092297799,0.004897800643,0.007143554755,0.00549965486
395,0.395,0.004011765015,0.05063425671,0.003428770872,0.004705070099,0.006589113436,0.005627634575
400,0.4,0.04766811931,0.05439014346,-0.002899505094,0.004397603445,0.01011837117,0.005512970578
405,0.405,-0.07429517894,0.05438762519,0.004699114158,0.004001792006,0.007764218135,0.005233257534
410,0.41,-0.1676581781,0.05016445996,0.0009413515178,0.003562759436,0.002404120542,0.004870458344
415,0.415,0.0367597337,0.04221439623,0.002496883553,0.003147673825,0.005591438127,0.004482535477
420,0.42,-0.006913294238,0.03197810602,0.001756487504,0.002830095712,0.00328715915,0.004096503817
425,0.425,0.01578319349,0.02140250601,0.001764023194,0.002663849305,0.008267614347,0.003730319199
430,0.43,0.003670912032,0.01229041239,0.007052949409,0.00266439201,-0.0001341427663,0.003427476052
435,0.435,0.0111923876,0.005797505005,-0.004263626114,0.002808837961,0.005576254611,0.003273383878
440,0.44,-0.005771716624,0.002258675252,-0.005785820252,0.003051686096,-0.0002279889656,0.003370898436
445,0.445,-0.0006488570453,0.001315437363,0.004589184171,0.003345110695,-0.00306372156,0.003784310307
450,0.45,-0.006721117976,0.002197022739,0.001317472184,0.003653340658,-0.003526490195,0.004486353143
455,0.455,0.008259876465,0.004015197829,0.002282491243,0.003956841817,-0.002546073368,0.005345057253
460,0.46,-0.003659318393,0.005992703279,-0.002806631701,0.004249786666,0.0181914133,0.006163963755
465,0.465,0.003958529561,0.00757994534,-0.0003561089775,0.004535222527,-0.002027047916,0.006753423849
470,0.47,-0.006392237359,0.008458738091,0.004628955686,0.00481906384,0.006876475416,0.006991423411
475,0.475,0.006480717083,0.008494787501,-0.008223727959,0.005101845982,0.02015396085,0.006844650357
480,0.48,-0.0136672049,0.007715151637,-0.007659944679,0.005373771677,-0.003567978403,0.006358298947
485,0.485,0.004789129003,0.006334605371,0.006798299746,0.005615419002,-0.0102632083,0.005636063435
490,0.49,-0.002340280329,0.004790978675,-0.003699236801,0.005796273913,0.005511003505,0.004818634387
495,0.495,-0.003109884024,0.003736399413,-0.00407609631,0.005872297842,0.006268632449,0.004061226126
500,0.5,0.009386649078,0.003961013986,-0.0008574734648,0.00579075576,-0.001853178735,0.003507623142
505,0.505,-0.002991770024,0.006240805842,0.008152657426,0.005511257939,-0.004081518499,0.00325850099
510,0.51,-0.009771153925,0.01112418194,0.01102987499,0.005040242785,0.002303453859,0.003343171043
515,0.515,0.005172913435,0.01870882957,0.005899709127,0.004453489075,0.005652774333,0.003709290538
520,0.52,-0.03095345995,0.02848396286,-0.002710185246,0.003880197138,-0.007011147219,0.00423318639
525,0.525,0.06991673682,0.0392897336,0.001567966986,0.003456203658,0.007427987931,0.004748974277
530,0.53,0.008135519773,0.04941667394,0.003571263367,0.003276581522,-0.001934282012,0.005094380412
535,0.535,-0.02359266648,0.05688492072,-0.003145805789,0.003369538136,0.009528270608,0.00516315965
540,0.54,0.1494056956,0.05998434435,0.0003010437093,0.003693369587,0.01334944562,0.004947178589
545,0.545,-0.1078671028,0.05800674901,0.005497128756,0.004148463911,0.004962905382,0.00454965459
550,0.55,0.01023022293,0.05170062379,0.009423375259,0.004598955942,0.003818220209,0.004152756215
555,0.555,0.04298213064,0.04301752533,-0.005778475066,0.004903542035,9.888542737e-05,0.00394014678
560,0.56,-0.06658040173,0.03433034258,-0.01470103244,0.004954209419,0.003681872128,0.004011516691
565,0.565,-0.06472297331,0.0276621936,-0.0002751659518,0.004713522522,-0.002180927872,0.004341153977
570,0.57,0.0002611002678,0.0242570142,-0.01093683055,0.004238217336,-0.004364063433,0.004804105327
575,0.575,0.00198205803,0.0244823124,-0.01126367523,0.003679440552,0.004581510669,0.005250502824
580,0.58,-0.08458263297,0.02794278431,0.002527981731,0.003262229477,-0.003115667628,0.0055865947
585,0.585,0.02649684265,0.03371385363,0.006360375065,0.003246415908,0.00167395754,0.005827155419
590,0.59,-0.02949438371,0.04057496586,-0.002279634732,0.003867056384,0.002964846573,0.0060930478
595,0.595,0.07838669253,0.04715833134,0.002216777672,0.005255115684,0.003705169967,0.00654640547
600,0.6,-0.126179753,0.05213158495,-0.003560234804,0.007351546494,0.005356050656,0.007288838253
605,0.605,0.02044679244,0.05449767851,-0.005379068638,0.009852571007,-0.01082528292,0.008281697914
610,0.61,0.06165493401,0.05394933211,0.002809541435,0.01223296196,-0.02257494941,0.009351971734
615,0.615,0.03700055585,0.05118262577,0.008092805996,0.01387711697,0.02790033525,0.01029562296
620,0.62,0.02477667969,0.04798479043,-0.03414922162,0.01430087579,-0.0053472445,0.01101573903
625,0.625,-0.0101355754,0.04676836971,0.00084740578,0.01337648554,0.0146166525,0.0115898032
630,0.63,-0.04824552588,0.04959475015,0.004322252555,0.01142374848,0.009965102908,0.01221566377
635,0.635,0.01229209243,0.05724769249,-0.002968001483,0.009075121043,-0.01012084213,0.01308593802
640,0.64,-0.04482533256,0.06883139417,0.005416360631,0.006993496922,0.02247004156,0.01426284872
645,0.645,-0.001129457476,0.0819883851,0.005250136248,0.005623139504,-0.008703137035,0.01560771195
650,0.65,-0.07083244899,0.0936095532,0.005002196093,0.005084740946,-0.008240207289,0.01679823914
655,0.655,0.06863006083,0.1008451934,0.01314117246,0.005213483785,0.0464900939,0.01743932269
660,0.66,0.1591015517,0.1020665338,-0.007350797999,0.005679344255,-0.009773875932,0.0172360265
665,0.665,-0.1548777048,0.09736772176,-0.006508090129,0.006131719252,-0.002363899531,0.01612876348
670,0.67,-0.1144957607,0.08847947779,-0.005079405597,0.006321921129,0.01185089391,0.01430581316
675,0.675,-0.04034205484,0.07814137317,-0.005652947066,0.006167069782,-0.009738394666,0.01213092141
680,0.68,-0.007044974382,0.06912580409,0.01000034641,0.005739935212,-0.01171633872,0.01006011165
685,0.685,-0.04492457495,0.06335496434,-0.003356223585,0.005203409911,0.004804570843,0.008544773662
690,0.69,0.1002437505,0.06146729838,-0.003810534617,0.004731498244,-0.000557661562,0.007917966025
695,0.695,-0.08030811721,0.06287476152,0.005535418111,0.00445376807,-0.005988740571,0.008304164428
700,0.7,0.05678772899,0.06622956359,-0.002866228152,0.004438365907,-0.0007447501086,0.009586692068
705,0.705,0.1161026143,0.07017025891,0.01801878144,0.004702033305,-0.0190683657,0.01144516635
710,0.71,0.1736156745,0.07403931669,0.0007991612156,0.005226256274,0.006030754632,0.01345136038
715,0.715,0.08121276995,0.07811765128,-0.008897035521,0.005960985689,0.005603513284,0.0151881148
720,0.72,-0.008167341018,0.08313077614,0.009324024703,0.006811449089,-0.007137081052,0.01634968514
725,0.725,0.03051512945,0.08935072122,0.001284601271,0.007630877294,0.004448689198,0.01681135657
730,0.73,0.06173362236,0.09601196071,0.003852097239,0.00824884367,-0.01016886878,0.01665782574
735,0.735,-0.1124148421,0.1014286778,0.005579273166,0.008539675354,0.01250279632,0.01614341959
740,0.74,0.1987719841,0.1036632586,-0.001810426977,0.008485185547,0.001621755831,0.01558688109
745,0.745,-0.1205335626,0.1013451726,0.01102874093,0.008171794473,0.01787997565,0.01524843902
750,0.75,-0.05469843496,0.0942592121,-0.01338270606,0.007730474095,0.006238553201,0.01522782564
755,0.755,0.004478534385,0.08341888549,-0.008185414739,0.007274080981,0.02879462949,0.01543403861
760,0.76,-0.1077091612,0.07052513538,0.009961328186,0.006859456411,0.02854518623,0.0156624597
765,0.765,0.05783183309,0.05727380431,0.009550526226,0.00648008263,-0.01767907273,0.01572355153
770,0.77,0.06621726274,0.04494286536,-0.005526862952,0.006095416508,-0.02266484228,0.0155403164
775,0.775,-0.04437454841,0.03425898507,0.002274770927,0.005678744384,0.01378213862,0.01518151003
780,0.78,0.09879981988,0.02547344073,0.01320095487,0.005243380558,0.0009711165598,0.01483234462
785,0.785,0.03108203331,0.0185423095,4.335523398e-05,0.004831936906,0.003928951281,0.01469941735
790,0.79,-0.01205568379,0.01328835316,-0.001491543277,0.004489202484,-0.003758161193,0.01486864437
795,0.795,-0.01850232755,0.009490639992,-0.005569826719,0.004248579574,-0.006845119274,0.01519033515
800,0.8,0.002235500441,0.006926726855,0.005781859175,0.004151654375,-0.02670504101,0.01528803246
805,0.805,-0.008620381509,0.00539155604,0.004159140352,0.004287869558,0.02562907619,0.01473070165
810,0.81,-0.01328338835,0.00470510153,0.003644905616,0.004812235492,-0.0126378051,0.01328861027
815,0.815,-0.006109671154,0.004712873226,-0.003166293643,0.005910170648,0.01888040606,0.01110724469
820,0.82,0.00741121371,0.00526943727,-0.003153415369,0.007712963147,-0.004088786793,0.008690241853
825,0.825,-0.001631116507,0.006209596236,0.01041119729,0.01019283706,0.001866906654,0.006710758789
830,0.83,-0.01455753707,0.007328905507,-0.00367646408,0.0130895026,0.000349794122,0.005754024294
835,0.835,0.01117412157,0.008392528836,0.01686761802,0.01592704849,0.009515892088,0.006105526947
840,0.84,-0.01684683946,0.009182681452,-0.06457540912,0.01814542507,-0.01722917057,0.007652745332
845,0.845,0.01518167009,0.009569894111,0.01828728057,0.01930261101,-0.005250570934,0.00991568134
850,0.85,-0.01429298592,0.009566387689,-0.01036821557,0.01921763936,0.01173641298,0.01218650684
855,0.855,0.009119007704,0.00931849637,0.01364116118,0.0179751546,-0.01353594551,0.01374912932
860,0.86,-0.006022170571,0.009031496181,-0.0298062038,0.01586408043,0.01666852613,0.01412981122
865,0.865,0.009737624288,0.008873516677,0.01191330829,0.0133240199,0.01131163076,0.01327777692
870,0.87,-0.01243283246,0.008917820203,0.01935091513,0.01088369107,-0.01053983808,0.01156215158
875,0.875,-0.00880953826,0.0091428923,0.004019911293,0.009064810367,0.002544238925,0.009576944304
880,0.88,0.008852769415,0.009457440604,-0.01301101404,0.008281801776,0.004762198336,0.007875272613
885,0.885,0.005184855868,0.009723095156,-0.01744762036,0.008771165929,-0.01926169292,0.00677185328
890,0.89,-0.01594664257,0.009795144543,0.01482361561,0.01054905705,0.0003265668749,0.006286455358
895,0.895,0.02034969978,0.009598651849,0.01461059188,0.0133880361,0.0004160840517,0.006213102834
900,0.9,-0.004214098227,0.009197682807,-0.004816086498,0.01682270118,-0.007822861488,0.006257876465
905,0.905,0.006813386295,0.008775485359,0.003975584058,0.02022840078,0.00789787191,0.006185582917
910,0.91,-0.007521238627,0.008513961706,-0.01081817983,0.02301550451,0.0003316602427,0.005913192046
915,0.915,-0.002783693747,0.008472018313,-0.03352113419,0.02492220596,0.002207687143,0.005515494256
920,0.92,-0.01554507057,0.008557819237,-0.01682334759,0.02632220929,-0.005652588253,0.005156064811
925,0.925,0.01622597667,0.008605000006,-0.005052958745,0.02838339071,-0.0009283635572,0.004989942045
930,0.93,0.006934258602,0.008481837939,-0.04446334171,0.03287657188,0.00149528036,0.005088518558
935,0.935,-0.002575643337,0.008145591938,0.001176651233,0.04153523459,-0.005075733485,0.005415581046
940,0.94,-0.005697526768,0.007628731605,0.01608411729,0.0551520698,-0.008495530756,0.005858260242
945,0.945,0.006888157997,0.007015201938,0.00281300089,0.07293992386,-0.009206630638,0.006290502031
950,0.95,-0.002189785827,0.00643511762,0.09559291986,0.09268124436,0.006169166156,0.006624627248
955,0.955,-0.008042316181,0.006052798204,0.1890695018,0.1116811111,0.001277157141,0.006815958836
960,0.96,0.01556123816,0.006029476075,-0.09443122553,0.1278241585,-0.006147108773,0.006834959075
965,0.965,0.002337849678,0.006465919394,-0.02460374481,0.1397336265,-0.008555710441,0.00665140018
970,0.97,-0.01012005858,0.007341245216,0.02778617613,0.1460347692,0.007114464021,0.006249600928
975,0.975,-0.01122787587,0.008482750649,0.08883948562,0.1450709724,-0.003332616881,0.005652728574
980,0.98,0.01276966528,0.009603027332,-0.1203390587,0.1359766309,0.003588367328,0.004932182393
985,0.985,-0.01734871046,0.01039759407,0.2110913491,0.1203154096,0.007346890894,0.004193687061
990,0.99,-0.01905275612,0.01066183566,-0.0110698125,0.1025625809,-0.005966029614,0.003547495693
995,0.995,0.002750998471,0.01038125353,0.02294500396,0.08856974435,0.006615404595,0.003082507773
1000,1,0.00297437498,0.009752119805,0.04206089269,0.08281151881,0.001608002004,0.002850381405
1005,1.005,-0.002889672073,0.009116949085,-0.01888669646,0.08613304384,-0.001624924962,0.002855943544
1010,1.01,0.00501047827,0.008834009877,-0.1075775308,0.09534543522,0.000901013472,0.003054183662
1015,1.015,-0.009847058542,0.009131297423,0.09175212833,0.1049430845,-0.00568790942,0.003360229252
1020,1.02,-0.009183767152,0.01001303201,-0.01346604818,0.1100409971,-0.003753357923,0.003677490218
1025,1.025,-0.0091195058,0.01126603911,-0.008320636312,0.1088728734,0.001752529266,0.003932758966
1030,1.03,0.007063182934,0.01256166538,-0.09894889956,0.1034585533,0.00350453615,0.004100916431
1035,1.035,0.0251393527,0.01360021472,0.07347063489,0.09827644821,0.001546234768,0.004215598127
1040,1.04,-0.007740391641,0.01423532499,0.01686710648,0.09793534828,-0.01028448255,0.00436741153
1045,1.045,0.02006757136,0.01450895914,-0.1828823129,0.1050848854,0.002650879005,0.004686810758
1050,1.05,0.0004541141835,0.01457322933,-0.00740372822,0.119225684,-0.003688665959,0.005307514816
1055,1.055,-0.002500550867,0.01456250257,-0.08915654295,0.136658282,-0.003016501791,0.006308735675
1060,1.06,0.01635673282,0.01450843136,0.1363001733,0.1518129433,0.010203376,0.007651067364
1065,1.065,-0.04615142174,0.01434738898,-0.3614971407,0.1598550221,0.001205564706,0.009136575858
1070,1.07,0.009388780344,0.01399978684,0.1004146292,0.1593531298,-0.001859045471,0.01042722721
1075,1.075,0.004340373846,0.01344681425,-0.1505479961,0.1530173596,0.01206447406,0.01113929539
1080,1.08,0.005904959553,0.01275137316,-0.0522160452,0.1457063688,-0.03818388313,0.01100181567
1085,1.085,-0.01828194561,0.01204141212,0.1291777491,0.1413449456,0.009111414724,0.010012241
1090,1.09,0.01165657114,0.01148553699,-0.2055353736,0.1409807712,-0.002196092246,0.00848199864
1095,1.095,-0.001934913772,0.01125288392,0.0537775094,0.1428842036,0.01505499748,0.006922439711
1100,1.1,-0.02598565927,0.01145630793,-0.1650105782,0.144268988,-0.001348771529,0.005831450705
1105,1.105,-0.01228249466,0.01211646801,-0.3294124139,0.1435517339,0.01258792654,0.005484638901
1110,1.11,0.01757954802,0.01316963431,-0.08769847277,0.1418606755,0.001811914299,0.005820601945
1115,1.115,0.01354924254,0.01449349222,0.0637105109,0.1424896552,-0.002642544297,0.006470123458
1120,1.12,0.005199969804,0.0159263294,-0.003159212294,0.148373891,-0.006296615378,0.006929212905
1125,1.125,-0.01101378145,0.01729538095,-0.02368755035,0.1595113898,-0.01479682562,0.006822861531
1130,1.13,0.05136254834,0.01847722237,0.1306269701,0.1721649534,-0.00618789908,0.006147343255
1135,1.135,-0.03449688094,0.01946099799,0.1975530958,0.1802861272,0.007765021901,0.005351489996
1140,1.14,-0.01904527962,0.02033926275,-0.06386444182,0.1783707713,0.003818256606,0.005202698279
1145,1.145,0.03026532501,0.02119189118,0.07401843422,0.1643527731,0.01100121138,0.00650618774
1150,1.15,-0.01808517929,0.02196280032,-0.06060026758,0.1407651829,-0.01679693395,0.009793010006
1155,1.155,0.02651702911,0.02245614869,0.07492880074,0.1133248081,-0.005782596109,0.01507787586
1160,1.16,-0.01160733358,0.0224434309,-0.01901843653,0.08814124612,0.005364903917,0.02176058976
1165,1.165,0.02225633518,0.02179197903,-0.007657389582,0.06924328562,-0.01892359827,0.02873265601
1170,1.17,-0.006022821839,0.02056926771,-0.09395576503,0.05748328199,0.01545795078,0.03469383061
1175,1.175,-0.007887240189,0.01907572335,-0.03035149335,0.05115505492,0.02094068067,0.03853854102
1180,1.18,0.01928400999,0.01775066864,-0.03615008187,0.04767343314,0.00353920058,0.0396069528
1185,1.185,0.009664165946,0.01698228878,-0.08360775804,0.04505042377,-0.03439357096,0.03774679306
1190,1.19,-0.002790439162,0.01692613734,-0.01150591823,0.04235912387,0.01066415625,0.03329528796
1195,1.195,-0.003611123529,0.01742485172,0.02488748468,0.03936743596,0.02949961315,0.0270418885
1200,1.2,0.0204116831,0.0180735844,0.003892213446,0.03598961559,-0.02573046726,0.02009429181
1205,1.205,0.008165310686,0.01838898021,0.06848062658,0.03203316894,0.002065086843,0.01361820751
1210,1.21,0.03625713736,0.0179893548,-0.06614523762,0.02733122271,0.01292565725,0.008530352844
1215,1.215,-0.01746553304,0.01672590429,0.01571345148,0.02199870534,0.002020078105,0.005277538299
1220,1.22,0.01624820482,0.01473954434,0.008467491983,0.01649499465,-0.005180017078,0.003791579082
1225,1.225,0.007951933536,0.01239398877,-0.01195928341,0.01144482785,-0.008351872127,0.003614227472
1230,1.23,0.008382933961,0.01010444872,-0.015497772,0.0073918309,0.002302164707,0.004119409849
1235,1.235,0.007230273993,0.008174518014,-0.004423537018,0.004635175725,-0.0001879383636,0.004736069163
1240,1.24,0.008935546273,0.006729279313,-0.008187017574,0.003181015797,-0.002349721812,0.005101969049
1245,1.245,0.009531249907,0.005747646609,-0.005499463088,0.002785977517,-0.006074677751,0.005137183673
1250,1.25,-0.01130012555,0.005141569222,0.001514571279,0.003064826378,0.008363991288,0.005055587808
1255,1.255,0.001358535708,0.004822386258,0.01010664758,0.003618052209,-0.01618204833,0.00532239501
1260,1.26,0.006210561713,0.004721215375,0.008326038163,0.004136954682,-0.003317596822,0.006546375023
1265,1.265,0.001228578023,0.004771524299,-0.003167475934,0.004457116434,-0.01285767696,0.009300991322
1270,1.27,-0.002071879746,0.004885372683,0.007575041425,0.004549490861,-0.009936843155,0.01391436454
1275,1.275,-0.003850988516,0.004949582316,-0.000889098392,0.004467996047,0.02727842234,0.02031171832
1280,1.28,0.0004074116245,0.004850328254,-0.002866309552,0.00429136463,-0.05518849701,0.02798437643
1285,1.285,0.0008761417971,0.004517085486,0.001578288316,0.004087229989,0.005678720755,0.03607921987
1290,1.29,-0.001793892076,0.003969426505,0.002895570157,0.003904480182,-0.07671590829,0.04352716232
1295,1.295,-0.005167200347,0.003352788265,0.002682162595,0.003783588504,-0.02953433184,0.04917874169
1300,1.3,-0.0005412303509,0.002951676468,0.00476088734,0.003768402945,0.04819422963,0.05198027272
1305,1.305,-0.006785771327,0.003172853097,0.002102498935,0.003907946477,-0.1641016017,0.05124769157
1310,1.31,-0.002818689491,0.004497183675,0.005421074022,0.00424765419,0.04362803342,0.04701396702
1315,1.315,0.01319860611,0.007403675411,0.007143511512,0.004814558289,0.006999036199,0.04015530694
1320,1.32,-0.01837386248,0.01227184456,0.001040489003,0.005598674283,-0.04160832416,0.03208419905
1325,1.325,0.02252010538,0.01927706001,0.0001949817292,0.006533218571,0.008020119324,0.02421648702
1330,1.33,-0.0409112112,0.02829856685,0.008143660115,0.007485756436,0.007280714411,0.01754910194
1335,1.335,0.04752145458,0.038876035,-0.008578842558,0.008279470913,-0.005913850362,0.01251236708
1340,1.34,-0.02715534813,0.05027822388,0.02963125515,0.008748256829,0.02818216852,0.009065064454
1345,1.345,0.1229515584,0.0616913351,0.0004238188042,0.008794685566,-0.01301257716,0.006904751395
1350,1.35,0.1141562753,0.0724242449,0.009109618375,0.00840973959,-0.001979867143,0.005668963989
1355,1.355,-0.02742264166,0.08198374625,0.002371541484,0.007652883168,-0.003866921078,0.005047151463
1360,1.36,0.03853314364,0.08988950984,0.003673446724,0.006630382245,0.0008893133758,0.004804358855
1365,1.365,0.1004187294,0.09533069544,-0.01095650726,0.005489769186,-0.003828597432,0.004768520416
1370,1.37,-0.1090359855,0.09705182888,-1.706357047e-05,0.004407350764,-0.001127736925,0.004815075537
1375,1.375,-0.01591057074,0.09374312021,-0.00239890447,0.003546222811,0.01267129084,0.00485891877
1380,1.38,0.08120395247,0.08484638781,-0.0005737655399,0.003005797834,0.004656291621,0.004852529912
1385,1.385,-0.01262450874,0.07125621524,-7.99268741e-05,0.002806513825,0.003906150089,0.004788569389
1390,1.39,-0.008268762963,0.05535103209,-0.008304472568,0.002922962772,0.004899619615,0.004699472947
1395,1.395,0.02534616471,0.04026181328,-0.0001510227912,0.003333675497,0.001386533205,0.004644157915
1400,1.4,-0.03508686532,0.0288102822,0.002592590394,0.004042304838,-0.0008769491528,0.004684511499
1405,1.405,0.03423971188,0.02268938871,-0.00115529648,0.005051900566,0.0110076296,0.004861560185
1410,1.41,-0.006796916496,0.02215531437,0.002079237071,0.006311826819,-0.01147675173,0.005176765802
1415,1.415,-0.05514533287,0.02615418372,0.0111975848,0.007669754631,-0.0009974847967,0.005582712042
1420,1.42,-0.03519243692,0.03268872458,0.01052593908,0.008863098057,0.01375176127,0.005988212199
1425,1.425,0.05740106811,0.03932520755,-0.01652718078,0.009579629156,0.005717749029,0.006281245641
1430,1.43,0.00231407571,0.04377368296,0.004620712913,0.00957788894,-0.0031722937,0.006365831843
1435,1.435,-0.03050607462,0.0444212906,0.00358104329,0.008804753714,0.01249130532,0.006196339777
1440,1.44,0.1168397914,0.0407103967,-0.00168740769,0.007442316774,0.0006888134925,0.005791194605
1445,1.445,-0.05776340309,0.03333876123,-7.229390616e-05,0.005850949959,-0.005868314026,0.005226357717
1450,1.45,0.01316681603,0.02412881865,0.002294750293,0.004426728983,-0.0009016125489,0.004619142282
1455,1.455,0.01128988432,0.0154506143,0.001717326743,0.003450007329,-0.005760182116,0.004106381555
1460,1.46,-0.005611674959,0.009442846846,-0.0002821047906,0.003003640074,0.002722715854,0.003814124569
1465,1.465,0.007410490076,0.007358250785,0.007795021296,0.002984616904,-0.003905226419,0.003820761366
1470,1.47,0.002950731281,0.009221993354,-0.0006678667609,0.003185158035,-0.006637710917,0.00412379192
1475,1.475,-0.01449085558,0.0138794328,0.004011629384,0.003395730964,-0.004620460711,0.004625391837
1480,1.48,-0.01294388525,0.0194075538,-0.001274077582,0.003481998585,0.003743493029,0.005153108204
1485,1.485,0.03908907165,0.02377258268,-0.004357480373,0.003411473018,0.005221901109,0.005520807526
1490,1.49,-0.02593359684,0.02552263674,0.00133611865,0.003232992897,-0.01319632339,0.005613130569
1495,1.495,0.03553022728,0.0242549412,0.003236692941,0.003032128307,-0.009166086682,0.005448634448
1500,1.5,-0.01633738038,0.02067382495,0.00240459223,0.002886818719,0.0005301116026,0.005170540282
1505,1.505,-0.04882835483,0.01626780066,-0.002009102093,0.002836542024,0.0005018879933,0.004962827942
1510,1.51,0.0002327120455,0.01278425912,0.004105093526,0.002870676855,0.005715883308,0.004949052682
1515,1.515,0.008011904056,0.01166474166,-0.002156221591,0.00293911196,-0.007563717383,0.005137118591
1520,1.52,-0.005603134263,0.0135682947,-0.002622254197,0.002981408399,-0.004058283568,0.005432959406
1525,1.525,-0.01324783936,0.01813291596,0.0002647257651,0.002960792987,-0.004931307754,0.005703021125
1530,1.53,-0.0002049773354,0.02407313914,-0.003761600008,0.002885231996,0.008407853848,0.005847462169
1535,1.535,0.01197738319,0.02959058885,-0.001213186776,0.00280365496,-0.002104359462,0.005844794405
1540,1.54,0.03465955367,0.03298936053,-0.002614600232,0.002778807181,-0.0008400138963,0.005744748408
1545,1.545,0.04511914624,0.03331735628,-0.0001690783729,0.00285136492,-0.002584502216,0.005618881979
1550,1.55,0.03771100514,0.03077204197,0.006002322768,0.003015035575,-0.000989716772,0.005505875102
1555,1.555,-0.001813611306,0.02669295284,0.006200336232,0.003219535587,0.008092742101,0.005391497106
1560,1.56,0.0004915224865,0.02312029133,0.009141770496,0.003401433312,-0.007424843612,0.00523607012
1565,1.565,0.01931582958,0.02199194884,-0.0001254766549,0.00352037242,-0.01440111731,0.005022151477
1570,1.57,-0.007979477838,0.02430805905,0.004153333214,0.003575371656,-0.003785744213,0.004780035483
1575,1.575,-0.04553760708,0.02970927913,-0.006317187279,0.003595147091,0.003344701506,0.004578364736
1580,1.58,0.06908835454,0.03665508465,-0.0001149644999,0.003611013819,-0.008593854049,0.004496988131
1585,1.585,-0.01299131831,0.04308882802,0.001792373903,0.003625343253,0.005195814854,0.004596620403
1590,1.59,0.1095838105,0.04728202822,-0.003272465279,0.003594501685,-0.002479247342,0.004891576242
1595,1.595,-0.008775910899,0.04849428285,-0.01225493182,0.003446329165,-0.007169680294,0.005330375868
1600,1.6,-0.06549186799,0.04716712821,0.00778301416,0.003131287381,-0.002899979466,0.005800420798
1605,1.605,0.03409939228,0.04464791488,0.006728936383,0.00267988452,0.006352284347,0.006164030382
1610,1.61,0.004266100162,0.0426625225,-0.001640499273,0.002230812532,0.006636718293,0.006312870177
1615,1.615,-0.003688024401,0.04264487894,0.000257415792,0.002009277236,-0.00382026479,0.006222629096
1620,1.62,0.04050129982,0.04515238569,-0.001123489042,0.002262665541,0.007832258971,0.005975324757
1625,1.625,0.0686025159,0.04969042591,0.009373893783,0.003174610374,-0.002002553253,0.005731134652
1630,1.63,-0.03225773771,0.05500394286,-0.000556260251,0.004776068952,-0.006990674935,0.005666206842
1635,1.635,0.04071897082,0.05962450725,0.004696568354,0.00688116202,0.007988162091,0.005906947472
1640,1.64,-0.009334991181,0.06236295157,-0.002598942303,0.009089510941,0.01337412086,0.006480239335
1645,1.645,0.01685848114,0.06258915946,0.01144456758,0.01088869996,-0.01470740118,0.007290083926
1650,1.65,-0.0709802277,0.06041210885,-0.02316554911,0.0118463932,0.0004079441586,0.008139896561
1655,1.655,0.04674380837,0.05684826069,-0.0005770410677,0.01181472157,0.01807284492,0.008808000411
1660,1.66,0.06869834405,0.05371708219,-0.004877164891,0.01100627548,-0.01717098681,0.009156626576
1665,1.665,-0.06981878959,0.05304067449,0.007421518802,0.009856921604,-0.00824918715,0.009225956712
1670,1.67,-0.01373694895,0.05622401128,-0.0005159011647,0.008786689035,0.01014955008,0.009243776788
1675,1.675,-0.12047749,0.06346914506,-0.009515370469,0.008024222287,-0.00959775082,0.009528810856
1680,1.68,0.1208732236,0.07369667533,0.01105911101,0.007564522947,-0.0001748094492,0.01034113938
1685,1.685,-0.1415134007,0.08494066547,-0.01117619536,0.007245908847,-0.009327340344,0.01174959001
1690,1.69,0.05429829156,0.0949081004,0.004514484502,0.006885162016,0.01406775436,0.01357299422
1695,1.695,0.08236688212,0.1014131117,-0.005977450503,0.006390311911,-0.003201277852,0.01542721603
1700,1.7,0.01997288442,0.1026564498,0.004637082135,0.005799360098,-0.003447748926,0.01686531637
1705,1.705,-0.1045796842,0.09762200573,0.003166579972,0.005242660493,0.02600164016,0.01755456339
1710,1.71,0.08050686953,0.08660414434,0.007415209227,0.004859976783,-0.01167894997,0.01741191505
1715,1.715,-0.03660734778,0.07144255526,-0.004258197582,0.004730158303,-0.01542980087,0.01661619362
1720,1.72,-0.04718967824,0.05519009386,0.01327844418,0.004850712244,0.01189106216,0.0154891403
1725,1.725,-0.01288311404,0.04128987725,0.01078180856,0.005158011583,0.01454694735,0.01434669535
1730,1.73,0.01514766762,0.03256337818,-0.004004185233,0.005563098549,0.01075464002,0.01341165778
1735,1.735,0.01540474102,0.03042534066,-0.004580622033,0.005984875197,-0.01663120846,0.01282629805
1740,1.74,-0.1131544633,0.0346115631,-0.00390850819,0.00636623743,0.01053378861,0.01272481165
1745,1.745,-0.02658857133,0.04347749485,-0.004482444787,0.006672060713,0.02508402199,0.01326066602
1750,1.75,0.1676219512,0.05471126523,0.003676888547,0.006883400328,0.002658058113,0.01454931342
1755,1.755,0.0002660985652,0.06616215684,-0.002626724527,0.007000616498,0.02100253466,0.01656469712
1760,1.76,-0.1494379464,0.07649789259,-0.002691656902,0.007054356999,0.02002749886,0.01904711924
1765,1.765,0.1794563557,0.08542752623,0.009808359189,0.007108374324,0.01696559979,0.02149273591
1770,1.77,0.04513152202,0.09338168608,-0.003893542646,0.007238194971,0.01562838106,0.02327838063
1775,1.775,-0.003205229066,0.100671926,-0.005164697714,0.007492456148,0.001865225222,0.02390084839
1780,1.78,-0.2396439399,0.1066028232,0.009381550679,0.007854864575,-0.03558451053,0.02320293945
1785,1.785,-0.0288173004,0.1094006518,0.006048654083,0.008225943881,-0.005364910057,0.02145457573
1790,1.79,-0.04331717851,0.1071529885,0.009113912085,0.008445043542,0.03921297674,0.01923756405
1795,1.795,-0.05614097851,0.09892064079,-0.01340895564,0.008359231907,-0.01801062042,0.01720866598
1800,1.8,0.09846592767,0.08529108266,0.0167108363,0.007915460462,-0.007693345141,0.01587549517
1805,1.805,-0.08494828134,0.06829773019,-0.004973457816,0.007220000274,0.001293372809,0.01545222147
1810,1.81,0.0387475915,0.05073370507,-0.01227303428,0.006511647276,-0.01519704371,0.01582321044
1815,1.815,0.0184794571,0.03513638799,0.005208098114,0.006064169855,-0.01012361904,0.01661658518
1820,1.82,0.009886668874,0.02304271918,-0.001118132723,0.006085425338,-0.00375232515,0.01734080863
1825,1.825,-0.02970187438,0.01481288737,0.01052476572,0.006652973995,0.03465801182,0.01753346424
1830,1.83,-0.002964190008,0.009906363739,-0.004074243274,0.00769172215,-0.03983874091,0.01691904727
1835,1.835,-0.007046877185,0.007347434551,-0.003747199592,0.008994236353,0.005353570312,0.01552547744
1840,1.84,0.007068890532,0.006153795752,0.02001264955,0.01028459773,0.01477243333,0.01365499106
1845,1.845,-0.002121071858,0.005589776817,-0.02601405488,0.01131623817,-0.01002169564,0.01172009101
1850,1.85,-0.006488200377,0.005235742225,-0.02003649053,0.01196757523,0.001723950196,0.01006395657
1855,1.855,-0.001410615042,0.004935768708,0.004650196784,0.01228012854,0.005900050235,0.008859382335
1860,1.86,0.004425481942,0.004691296442,0.01006921885,0.0124221894,-0.01646936782,0.008107650742
1865,1.865,0.0002369767311,0.004558769257,0.009929649512,0.01260855166,0.005789768815,0.007701149456
1870,1.87,-0.0129232882,0.004587002755,0.0007497441148,0.013009911,0.007406622363,0.007502922294
1875,1.875,0.001494470495,0.004795135736,0.01346309408,0.01366703589,-0.002652908222,0.007398363829
1880,1.88,0.004372712796,0.005163833805,0.004102924849,0.0144559176,-0.01148733805,0.007303318409
1885,1.885,-0.006095609413,0.005629225605,0.02550428064,0.01514414805,0.008206356438,0.007155379936
1890,1.89,-0.007981025031,0.006091826478,-0.02043505426,0.01551496857,-0.005701549859,0.006911200911
1895,1.895,-0.007827405071,0.006440114937,-0.006498457715,0.01550489899,0.004751128027,0.006548556253
1900,1.9,0.01034826688,0.006579554543,-0.01502269541,0.01529251367,0.004295712214,0.006071478321
1905,1.905,0.004607166921,0.006460933523,0.01376006795,0.01530782654,0.003976533704,0.005519204634
1910,1.91,-0.0194262702,0.006104829092,0.01069939554,0.01617353042,0.005445952247,0.004968454695
1915,1.915,0.008379685314,0.005615338635,-0.01670108754,0.01858209664,0.006486624809,0.004518385079
1920,1.92,-0.004355800736,0.005160382287,0.04417807751,0.02312452084,-0.002829209621,0.004265209688
1925,1.925,0.004468736342,0.004907079127,0.02844135362,0.03009481732,0.00784479243,0.004274580107
1930,1.93,0.0005162076621,0.004946784394,0.0455471268,0.03929523995,-0.004638402551,0.004556020792
1935,1.935,-0.006740946519,0.005253977865,-0.05622078206,0.04995246813,0.003641188886,0.005047415134
1940,1.94,-0.0002766795154,0.005698694587,0.004680621398,0.06085144582,0.01333575587,0.005620069157
1945,1.945,-0.001529994789,0.006102440883,0.009334322846,0.07060805646,-0.002091579471,0.006113995166
1950,1.95,0.003386105288,0.006306270911,-0.130930708,0.0779468543,-0.003075973808,0.006393111621
1955,1.955,0.01367784798,0.006227818991,0.1121908004,0.08206242787,-0.008025659503,0.006395372638
1960,1.96,-0.003277848321,0.005893699147,0.02574560542,0.08304246759,-0.008980266808,0.006156366106
1965,1.965,0.001231402069,0.005431187586,-0.02909430743,0.08191825558,-0.00595951803,0.005791562244
1970,1.97,0.005176085701,0.005018635296,0.1053273024,0.08012769256,-0.007409674013,0.005443971661
1975,1.975,-0.01073796182,0.004819924784,-0.01169531476,0.07876614024,0.00377898613,0.005224934457
1980,1.98,0.009323945441,0.004930224482,0.04520226872,0.07816249643,-0.006269603176,0.005174902027
1985,1.985,0.009741199403,0.005344992351,-0.1067670622,0.07795689871,-0.01102569675,0.005258280705
1990,1.99,0.005583961554,0.005960091406,0.1909221738,0.07748315333,-0.0006183072078,0.0053929916
1995,1.995,-0.00473216417,0.006606199246,-0.02042882544,0.0761388096,0.01225551429,0.005496390861
2000,2,0.0007874787854,0.007106540612,-0.09282885723,0.07353511703,0.01106168696,0.005524653138
2005,2.005,-0.01930624937,0.007339551321,0.2631515623,0.06952793499,-0.009899767737,0.005490398769
2010,2.01,-0.002617370509,0.00728400495,0.01298768413,0.06438103007,0.004332486062,0.005448652905
2015,2.015,0.01058836781,0.00702059614,-0.0003323561771,0.05888156668,0.0002968563515,0.005462088428
2020,2.02,0.02116337542,0.006694899772,-0.0192315395,0.0541345328,0.009462679708,0.005568969898
2025,2.025,0.0002548180439,0.006478829206,0.01518055615,0.05120220441,0.002399992739,0.005763612101
2030,2.03,0.02535875401,0.006536953092,-0.01006044169,0.05077924746,0.004033918776,0.005992228985
2035,2.035,-0.01083444009,0.006986307164,-0.05142202129,0.05302346245,0.002277522303,0.006164190412
2040,2.04,0.01881528462,0.00786306892,0.06828114232,0.05760077419,0.01207751637,0.00617576459
2045,2.045,0.004844190209,0.00910195036,-0.1160885466,0.0639264414,-0.001990153782,0.00595001581
2050,2.05,-0.009354328181,0.01052881483,0.05912159668,0.07144276026,0.003220265907,0.005481867417
2055,2.055,-0.02544196749,0.01187897376,0.03762879818,0.07964602313,-0.005409403379,0.004859552316
2060,2.06,0.001787660431,0.01284934364,-0.07549715979,0.08788453172,0.01088992332,0.004250968367
2065,2.065,0.03375848925,0.01317761003,-0.1108340396,0.0953120518,0.004086988417,0.003862458588
2070,2.07,-0.01605976202,0.01273844319,0.3345367641,0.1012031803,-0.001349984139,0.003875948616
2075,2.075,0.02096032379,0.01162233049,-0.04541868524,0.1054032508,0.001199647278,0.004378320418
2080,2.08,-0.005928305548,0.0101306297,-0.07306070608,0.1084076514,0.007773244616,0.005312788386
2085,2.085,0.002364094544,0.00867610188,-0.0240851942,0.1107634962,-0.008215050069,0.006479197937
2090,2.09,-0.0001893345591,0.007647745033,0.1614023858,0.1122947437,0.006978663714,0.007589407754
2095,2.095,-0.005308735312,0.007317575998,-0.1549525146,0.1120981277,-0.01935402478,0.008357730382
2100,2.1,0.0008439517239,0.007817270699,-0.20204853,0.1096840088,-0.01230528812,0.008598705402
2105,2.105,-0.0173966468,0.009140391391,0.01664295756,0.1065361474,0.002247912553,0.008293908919
2110,2.11,0.01744535594,0.01113375139,-0.04474946829,0.1067232545,-0.01235734028,0.007598304663
2115,2.115,0.00386287521,0.01349755394,0.1039131427,0.1156442493,0.01483183423,0.006798573997
2120,2.12,-0.0007634095239,0.01582388343,-0.02469900366,0.1373847577,0.0001274192222,0.006248548257
2125,2.125,-0.04140126233,0.01769093117,0.1167134984,0.1720300366,0.0009821605625,0.006277616541
2130,2.13,0.02838156677,0.01879985745,-0.2082027968,0.2142629704,0.001607406513,0.007068357797
2135,2.135,0.01467282939,0.01907353357,0.2747262871,0.2541473782,-0.0070657323,0.008549005457
2140,2.14,-0.0113566269,0.01863143019,0.3019117442,0.2801185376,0.008768221208,0.01036306896
2145,2.145,-0.04719360457,0.01767364176,0.259089102,0.2834339856,0.0107571279,0.01195410519
2150,2.15,0.01490609836,0.01640244681,0.03139326858,0.2624751966,-0.03531767013,0.01275440003
2155,2.155,-0.03536884597,0.01503646653,0.02022710772,0.2241846457,0.002923116711,0.01240977493
2160,2.16,0.01884748313,0.01383703464,-0.124911791,0.1810283964,0.004378937082,0.01093416535
2165,2.165,-0.01398139585,0.0130693642,0.01830400931,0.1452540634,-0.01354077804,0.008707454699
2170,2.17,0.01122048141,0.01290936649,-0.03807678537,0.1236881401,0.001529779837,0.006331801843
2175,2.175,0.03918713709,0.01336620656,-0.1599139674,0.1156942914,0.004666838944,0.004439736202
2180,2.18,-0.0139329731,0.01427352811,0.2376359279,0.1149507335,0.008139461121,0.003535613074
2185,2.185,-0.006446669881,0.01533972269,0.1046812056,0.1135926998,-0.005003101776,0.003904767782
2190,2.19,0.0327841166,0.01622342049,-0.002390044987,0.1061938225,-0.0005181709024,0.005587322457
2195,2.195,-0.005201430438,0.01664651831,-0.05081436822,0.09163733415,0.001308090639,0.008400211223
2200,2.2,-0.03247040414,0.01652347131,-0.05779488299,0.07265736108,0.006514513922,0.01199702993
2205,2.205,0.01088567965,0.01600693423,-0.01635681693,0.05393623212,0.02187533171,0.01596280813
2210,2.21,-0.01357904763,0.01541687195,-0.01277054879,0.03974434148,-0.0219501689,0.01993160787
2215,2.215,0.004044373444,0.01510480702,0.004929272431,0.03217519011,-0.00722643133,0.02365953497
2220,2.22,0.03175916116,0.01530221253,-0.06350016325,0.03066442309,0.005231620602,0.02699206567
2225,2.225,-0.01433080382,0.01599734391,0.03133094991,0.03278137755,-0.01004459343,0.02977237134
2230,2.23,-0.001979794166,0.01690853147,0.09654931078,0.03569059184,-0.04765856869,0.031750383
2235,2.235,-0.01910050264,0.01759647161,0.001556336629,0.03739884776,0.02719782715,0.03255609258
2240,2.24,-0.01201425387,0.01767821436,-0.06662309856,0.03716609507,-0.05397365729,0.03182038537
2245,2.245,0.002649363289,0.01701193384,-0.002044138346,0.03514780847,0.03315464509,0.02937513076
2250,2.25,0.005231587698,0.01571236627,-0.00598568248,0.03181103033,-0.008348997704,0.02538261109
2255,2.255,-0.02716288544,0.01401641543,-0.03686453616,0.0275615227,-0.0036049295,0.02031230763
2260,2.26,0.005871980033,0.01215621022,0.0407492712,0.02272637109,0.02064888522,0.01478906516
2265,2.265,-0.006276039923,0.01031667341,-0.001091959621,0.01770168218,-0.003067068807,0.009419142271
2270,2.27,-0.00892206639,0.008642470447,-0.005789546478,0.01298183624,-0.00248598902,0.00469622973
2275,2.275,6.302161168e-05,0.007252473288,0.02900650653,0.00902742708,-0.003434750587,0.001025501217
2280,2.28,-0.007881231964,0.006239029412,-0.009869571485,0.006126727021,0.00721104713,0
2285,2.285,0.002789934234,0.005650894951,0.001921353684,0.004346554705,-0.004647149383,0
2290,2.29,0.0003717659229,0.005480035488,-0.003366002839,0.003555528085,0.003905783761,0.001221987424
2295,2.295,-9.527176042e-05,0.005659662974,-0.001693011306,0.003489342916,-0.009250112418,0.006950479742
2300,2.3,0.006302157874,0.006067500226,0.01435973037,0.003834461082,0.002286072104,0.01583314601
2305,2.305,0.006773588547,0.006530458289,-0.002880753913,0.004304281818,-0.005530372493,0.0269125628
2310,2.31,-0.0002299733256,0.006836809914,0.004767152608,0.004690653271,-0.01784603859,0.03822523329
2315,2.315,0.01216947794,0.00677200646,0.009748119204,0.004885205673,0.07606036219,0.04724491282
2320,2.32,0.005947332148,0.006201195129,-0.006502480237,0.004874822484,-0.1188812918,0.05181931668
2325,2.325,0.005949865195,0.005199665176,0.004484473164,0.00471882012,0.06231881513,0.05114617915
2330,2.33,-0.01063946361,0.004178490685,-0.00532073548,0.004515311648,0.04993082802,0.04616131918
2335,2.335,-0.012354349,0.003921389385,0.01102649895,0.004363206276,0.01227800214,0.03910264294
2340,2.34,-0.006338377466,0.00544980836,0.0008561191651,0.004333074859,-0.04080451584,0.03261118795
2345,2.345,-0.0007952900543,0.009683831048,0.002288677729,0.004455887834,0.02454213943,0.0288708999
2350,2.35,0.008442433167,0.01697910384,0.01032548757,0.004723962855,0.01368633983,0.02902022589
2355,2.355,0.006158140038,0.0267528958,0.002399611306,0.005098841203,-0.0204271539,0.03289743984
2360,2.36,-0.06029530385,0.03744806417,0.0009756091368,0.00552171142,0.03518217891,0.0391301089
2365,2.365,0.0321708818,0.0469687151,-0.005934769084,0.005926207497,-0.1168463066,0.04553500937
2370,2.37,-0.08450597379,0.05346614797,0.008055072893,0.006255748014,0.09037263866,0.04977821485
2375,2.375,-0.009431190049,0.05608606957,0.0008703123945,0.00648145378,-0.05430569281,0.05011641335
2380,2.38,0.05553442383,0.05524883984,-0.006073052563,0.006608359104,0.005379375278,0.04594498416
2385,2.385,-0.04239183583,0.05236395958,0.00814595232,0.006661018558,0.03584583588,0.03797268346
2390,2.39,0.03677789972,0.04925188735,-0.0006687496034,0.006658687327,-0.02083544045,0.02795478024
2395,2.395,0.001699916289,0.0475483838,-0.01640115301,0.00660113601,0.01156006384,0.01805120565
2400,2.4,-0.07911417443,0.04821247101,-0.008614528959,0.006478422952,0.003647752279,0.01008299629
2405,2.405,-0.003118644476,0.05120405286,0.01814876385,0.006293818337,0.01038533514,0.005020831923
2410,2.41,-0.09485909424,0.05547145564,-0.01284902527,0.006075885205,-0.0006482522178,0.002868621151
2415,2.415,0.0781399675,0.05935508116,-0.0005430669309,0.00586584009,-0.008714545828,0.002892541017
2420,2.42,0.05218764596,0.06128014534,-3.710240923e-05,0.005686470181,0.01692779967,0.004031539831
2425,2.425,-0.04244826957,0.0604182799,-0.002288543492,0.005523494203,-0.005604811298,0.005309055469
2430,2.43,6.04072289e-05,0.05702269536,0.005087187881,0.005338861757,-0.009092874447,0.006105406588
2435,2.435,-0.05222814877,0.05227692375,0.0003260835774,0.005101120667,0.001646333772,0.006231487268
2440,2.44,-0.05436863694,0.04775526215,0.002945600402,0.004809304013,-0.008199281322,0.005840786544
2445,2.445,0.005476799811,0.04479024074,-0.002131189183,0.00449771853,-0.007710308201,0.005259764602
2450,2.45,-0.05346867901,0.04396118418,0.00122612122,0.004218976813,-0.001516855643,0.004812637216
2455,2.455,0.07795356731,0.04486446389,0.005541621212,0.00401828644,0.004871674439,0.004695075055
2460,2.46,-0.04384021885,0.04631467941,-0.004026247579,0.003917222626,0.006391032045,0.004924931169
2465,2.465,0.05787991005,0.04686765481,-0.001527869659,0.003912559182,-0.01160331786,0.005370757275
2470,2.47,-0.02041759536,0.04541411956,0.005412718628,0.003983352957,-0.005939719113,0.00582765979
2475,2.475,0.01493403677,0.04165041089,0.002672371097,0.004100944325,-0.003584337466,0.006103260611
2480,2.48,0.01931268004,0.03626389008,-0.008525794636,0.004239453251,-0.001629262791,0.006086425656
2485,2.485,-0.02304577083,0.03067213743,0.004733589252,0.004380737598,-0.009420626138,0.005776130951
2490,2.49,0.01710713238,0.02634415573,0.002560993196,0.004511031037,0.004958060597,0.005263574632
2495,2.495,-0.01507233784,0.02409412,0.007194516797,0.004613540469,-0.00139295354,0.004685589505
2500,2.5,0.04413304034,0.02375113809,-0.001866100089,0.004664436629,0.004282468793,0.004175535776
2505,2.505,-0.01604555456,0.02435513021,-0.003163889643,0.004636413369,0.008354518952,0.003831149032
2510,2.51,-0.01015957304,0.02474195909,0.005596944332,0.004509400659,-0.01176387974,0.003700169197
2515,2.515,-0.007034216909,0.02419101235,-0.004297870659,0.004284929922,0.001956672036,0.003774033948
2520,2.52,0.001981346592,0.02274382377,-0.004623264351,0.003995425629,0.001741112575,0.003989102149
2525,2.525,0.02097286324,0.020986767,-0.006578005057,0.003700325608,-0.01167286014,0.004244502092
2530,2.53,-0.008273456988,0.01952840049,-0.003246368217,0.003471130211,0.004462010986,0.004443340327
2535,2.535,0.01440340328,0.01857561443,-0.002886767386,0.003371891408,-0.004264809141,0.00453984196
2540,2.54,0.001806575475,0.01786189542,-0.0002966847482,0.003440314916,-0.008486092298,0.00455438976
2545,2.545,0.04771675404,0.01694399056,0.004966890749,0.003677554178,0.0008966845906,0.004542778977
2550,2.55,-0.01382165287,0.01565025311,0.0086354789,0.004050544048,0.008100278769,0.004548488524
2555,2.555,-0.003675839229,0.01432723756,-0.001786348782,0.004501485267,0.002580539369,0.004577262571
2560,2.56,0.006534935757,0.01368768954,0.002238035273,0.004956244944,0.005237870981,0.004607541404
2565,2.565,-0.002450675197,0.01440032899,-0.005025630516,0.005332235284,0.001936916484,0.004617745039
2570,2.57,0.003821366577,0.01670805823,-0.01102179804,0.005557405956,-0.00154871328,0.004608659246
2575,2.575,-0.0678359886,0.02028323323,-0.002096026134,0.005596582379,0.005515554606,0.004606571618
2580,2.58,0.02697610412,0.024374635,-0.001521670427,0.005460769373,-0.006124157507,0.004645502969
2585,2.585,0.0002593916934,0.02813217152,-0.004426276024,0.005192607119,0.0008481329023,0.004747497439
2590,2.59,-0.02446725729,0.03092391179,0.007939992567,0.004849339664,-0.002266817753,0.004912647314
2595,2.595,0.05807282084,0.03254393823,-0.002343717831,0.004495840755,-0.002741738222,0.005113725619
2600,2.6,0.1023300411,0.03326376428,-0.001777099184,0.004196755738,0.0004690723979,0.005300197301
2605,2.605,-0.00545445695,0.03368533839,0.006804474874,0.00400083164,-0.01345983606,0.00542043322
2610,2.61,-0.005384615384,0.03438284307,-0.0009845770165,0.003927226428,0.008727856625,0.00545076101
2615,2.615,0.0054835341,0.03548279533,-0.008675332918,0.00396019222,0.006680684944,0.005407829221
2620,2.62,-0.05796845586,0.03653764396,-0.006057489141,0.004053198637,0.002027654903,0.005337133048
2625,2.625,0.01838090776,0.03691779889,0.003345074371,0.004149120878,-0.001599056169,0.005289325105
2630,2.63,0.1096852498,0.03654097861,-0.001150084218,0.00421385792,0.004003649267,0.005302272459
2635,2.635,0.03072492331,0.03640753329,-0.007445212678,0.004262181549,0.001878818884,0.005399263008
2640,2.64,-0.04763066913,0.03839438019,0.001721268962,0.00435155172,0.01420677207,0.005597807106
2645,2.645,0.04161737759,0.04425454713,0.002779400556,0.004542538174,-0.001718387007,0.005921249499
2650,2.65,0.01553924174,0.05442281685,0.001605098457,0.004852522877,0.005811212369,0.00639985712
2655,2.655,-0.07849698389,0.06736913896,0.004050452551,0.005236713958,-0.003378524503,0.00704828476
2660,2.66,0.09193931367,0.07996953133,0.003035729506,0.005612876335,0.01034082569,0.007833125701
2665,2.665,0.08955591066,0.08881304146,0.00380552426,0.005915075792,-0.02009171979,0.00865768128
2670,2.67,0.1306946764,0.09176355098,-0.006872535689,0.006144115639,0.008087681574,0.009377575682
2675,2.675,0.006443873156,0.08888440637,-0.003324259467,0.00638682494,0.01869986261,0.009842176719
2680,2.68,-0.1139673174,0.08211147582,0.007544465784,0.006783883343,-0.01635927666,0.009951384291
2685,2.685,-0.04282358019,0.07398494162,0.003677433219,0.007446298622,0.01122215558,0.009707696355
2690,2.69,0.1084117084,0.06650063245,0.00212619081,0.008356362359,-0.01345124751,0.009227080924
2695,2.695,0.03141205219,0.06075284816,-0.0004008247295,0.009320195847,-0.0003067008,0.008698794199
2700,2.7,0.008339634239,0.0573099143,-0.009620071053,0.01003151408,0.00432779802,0.008316168329
2705,2.705,0.02708523379,0.05676143324,-0.001903178447,0.01023048871,0.006219065827,0.008214210054
2710,2.71,-0.01515867034,0.05984032177,-0.009638612762,0.00985850719,-0.008430681617,0.008451405167
2715,2.715,-0.06824442877,0.06684755319,-0.001414896717,0.009083082617,0.03198917302,0.009038465011
2720,2.72,0.002469736786,0.07684398466,0.006045162601,0.008175012436,-0.01410765952,0.009972203372
2725,2.725,0.03276684451,0.08746191767,0.006490959735,0.007357989015,0.006098077707,0.01122847941
2730,2.73,-0.1088503989,0.09566111937,-0.007600683159,0.006738366151,0.006794537907,0.01270593787
2735,2.735,0.1095820156,0.09900670018,0.001418024013,0.006320575968,0.005430661723,0.01417888124
2740,2.74,-0.07914503799,0.09661796649,0.01063920953,0.006051231212,0.01187732611,0.01534098334
2745,2.745,0.08601468121,0.08927279232,0.00730802432,0.005856869685,-0.02167707077,0.01594645474
2750,2.75,0.01313036021,0.07887078521,-0.01160495786,0.005672086999,0.02565567189,0.01595204421
2755,2.755,0.08727294059,0.06765601832,0.01151517069,0.005459635112,0.00226363585,0.01553294542
2760,2.76,-0.01466254536,0.05761600984,-0.005257956403,0.005224679465,-0.002811186667,0.01494886516
2765,2.765,-0.09941582085,0.05022220679,-0.0007800058724,0.005013881006,0.00507383564,0.01437705918
2770,2.77,-0.003304167029,0.04636063901,0.01069264551,0.004891086574,-0.008242758125,0.01385166569
2775,2.775,0.1129893454,0.04633874452,-0.002290057579,0.004902940684,0.01146484564,0.01332939744
2780,2.78,-0.1152364496,0.04988491805,-0.001363655226,0.00505249585,-0.008176970185,0.01278157345
2785,2.785,0.007169161973,0.05609623086,-0.003970075245,0.005289752685,-0.001140165935,0.0122275745
2790,2.79,0.001084854986,0.06344013297,-0.004155808323,0.005529658942,0.02619767313,0.01170859713
2795,2.795,-0.08671007385,0.07006415933,-0.003467430695,0.005696897951,-0.01979716881,0.01125543668
2800,2.8,0.1516892065,0.07455076277,0.007809566425,0.00577236027,0.01715936466,0.01089107141
2805,2.805,0.02683864604,0.07671644204,-0.009727142785,0.005808871626,0.009274610057,0.01065666418
2810,2.81,0.01602194648,0.07769216007,0.004825752707,0.005900153445,-0.006097513515,0.01063430833
2815,2.815,-0.1180318051,0.07903590784,0.00115801738,0.006119891184,0.0107493579,0.01095525202
2820,2.82,0.01729027562,0.08151158621,0.001349655336,0.006468965032,-0.01721184283,0.01178362995
2825,2.825,0.1238903707,0.0843673708,0.004542322812,0.006856512459,-0.02381860678,0.01326408446
2830,2.83,-0.1872036512,0.08554620776,0.01339575387,0.007118790656,0.01505195687,0.0154290671
2835,2.835,0.03952922547,0.08273060728,-0.009713154308,0.007075638921,-0.03141378207,0.01810839202
2840,2.84,0.07966175634,0.07459329384,-0.01405096067,0.006611768612,0.02928501588,0.02092040527
2845,2.845,-0.09755279941,0.06153630484,0.0106918119,0.005748222454,0.04189773914,0.02336641441
2850,2.85,-0.017527927,0.04559459636,-2.613646846e-05,0.00467449184,-0.02303778084,0.0249741493
2855,2.855,2.481781647e-05,0.02964392273,-0.003214672407,0.003725402215,-0.03490104153,0.02542312605
2860,2.86,0.001303900661,0.01633748597,0.002524885762,0.003303520315,0.02982395432,0.02461441044
2865,2.865,0.006190244644,0.00726570934,-0.00415765788,0.003764858139,-0.0211691654,0.02269002877
2870,2.87,0.002960043353,0.002672541521,0.003329520022,0.005293808503,-0.0002480523835,0.02001269847
2875,2.875,-0.002846145861,0.001704830597,0.005266491766,0.007803204522,0.03782261849,0.01708709996
2880,2.88,-0.002514105052,0.002935635048,0.004153072541,0.01089694219,-0.015927088,0.01444435624
2885,2.885,0.01327506185,0.004907181872,-0.01125870169,0.01392435974,-0.01035129421,0.01252940247
2890,2.89,-0.001079356987,0.006536287451,-0.01382126511,0.01615224898,-0.009227490723,0.01157778034
2895,2.895,0.003468382256,0.007299924818,0.01949268775,0.01702650039,0.02454769684,0.01151711192
2900,2.9,-0.006676716409,0.007195976464,-0.01283485849,0.01638830623,0.006738715749,0.01197204513
2905,2.905,-0.005525897452,0.006555424263,0.02247289922,0.01451943261,-0.02349059124,0.01240367572
2910,2.91,-0.003630080802,0.005809109721,-0.008848733108,0.01202599452,0.03474492454,0.01233710978
2915,2.915,0.007716887707,0.005298757936,0.007172249175,0.009636800098,-0.0189888483,0.01156545814
2920,2.92,-0.003319212857,0.005185023897,0.004667011596,0.007987457742,0.01126780335,0.01021304879
2925,2.925,-0.00272389668,0.005447216606,-0.001488581102,0.007454993153,0.009054619072,0.008636494328
2930,2.93,0.001827623689,0.00593477569,-0.0007679956605,0.008075139927,0.0006118022541,0.007243979187
2935,2.935,-0.007718521477,0.006439197285,-0.005775997774,0.009556209823,0.003347966884,0.006324732929
2940,2.94,-0.0006896069199,0.006766878438,0.004890017164,0.01140143178,-0.003456684088,0.005951402614
2945,2.945,-0.01187219842,0.006790555806,0.00292922579,0.0131126931,-0.01100740421,0.005986933321
2950,2.95,-0.003821507117,0.00647198,0.02421349668,0.01439148671,0.01584942967,0.006183736385
2955,2.955,-0.003747822239,0.005868498755,-0.03376686467,0.01525523712,0.002496844824,0.006315740977
2960,2.96,0.008278711165,0.005127611996,0.01659044414,0.0160514102,-0.00380276286,0.006268493847
2965,2.965,0.00339183619,0.004458829813,-0.007907886318,0.01737834219,-0.003087896767,0.006052803573
2970,2.97,8.400882817e-05,0.004076910013,-0.02659861684,0.01993519959,0.000552082614,0.005763381835
2975,2.975,0.001844657693,0.004133842713,0.02005156446,0.02434516552,-0.00135239905,0.005515448176
2980,2.98,0.008644687715,0.004668370156,0.05022442947,0.03102695835,0.001749371907,0.005385121237
2985,2.985,-0.007725981119,0.005591757375,-0.1035985588,0.04017294808,0.01212376056,0.005378611221
2990,2.99,-0.01198389959,0.006713061833,0.03730273773,0.05174108307,0.006145817457,0.005443907106
2995,2.995,0.01576429802,0.007793009389,0.005938516642,0.06522523253,0.0006762101414,0.005507597748
3000,3,-0.001458768113,0.008608245265,0.01774181074,0.07920319078,-0.001717359658,0.005505415043
3005,3.005,-0.01506295419,0.009006329744,-0.1365987431,0.0912187766,0.01731051213,0.005398450325
3010,3.01,0.006194339049,0.00894584324,-0.04612223689,0.09857220373,0.004343432733,0.005187094161
3015,3.015,-0.0109325905,0.008513569278,-0.1344225983,0.09973011621,0.0006008669115,0.004919917077
3020,3.02,0.004034283254,0.007886452782,0.1711359415,0.09530415479,0.008604147268,0.004676713947
3025,3.025,-0.0002150967637,0.007244512956,0.0190096935,0.08790095167,0.0003976299232,0.004529682605
3030,3.03,-0.006418572465,0.006699753479,0.03178681095,0.08088923466,-0.003113283089,0.004510961439
3035,3.035,-0.004388739719,0.006290742441,0.07295949947,0.07680569822,0.004154934215,0.004605320905
3040,3.04,0.008693557651,0.006034570683,0.08997977767,0.07639629157,0.01110973238,0.00477071656
3045,3.045,-0.007142532514,0.005981299355,0.06715556065,0.078636486,0.00747327246,0.004969608628
3050,3.05,-0.005451062503,0.006219031584,0.1385828468,0.08147154118,-0.00100638019,0.00518706192
3055,3.055,-0.005319996113,0.006830373243,-0.2458644481,0.08289441697,0.003292717899,0.005421211517
3060,3.06,0.01309556755,0.007837000692,0.1482379055,0.0819337183,-0.001084109487,0.005658112795
3065,3.065,0.004874115237,0.0091551146,0.06262642576,0.07908750449,-0.003204591233,0.00585977954
3070,3.07,0.001138872387,0.01057410817,-0.06269708919,0.0759652902,-0.006442742931,0.005974609196
3075,3.075,-0.02698886114,0.01178752686,-0.0807953529,0.07439012271,-0.01284941198,0.00595797758
3080,3.08,0.01210283187,0.01249215236,0.05303619556,0.07540977793,-0.0007248062881,0.005792989382
3085,3.085,0.0008560435608,0.01251294346,-0.01346816318,0.07864884956,-0.008615767025,0.005505598886
3090,3.09,0.01187258099,0.01187974827,0.1805260068,0.08236063621,-0.006438057779,0.005172124914
3095,3.095,0.002819324943,0.01082271718,-0.1334962538,0.08431265556,0.0008839542019,0.00491844624
3100,3.1,-0.006687402693,0.009697739527,-0.07247953675,0.08317726991,-0.007962606816,0.004894454296
3105,3.105,0.01745348762,0.008872291225,-0.2026359051,0.07960870547,0.001541848424,0.005213684911
3110,3.11,0.00510451328,0.00862689203,0.1295179323,0.07632233877,-0.0008265310206,0.005882119624
3115,3.115,-0.01628535494,0.009095393675,0.05105485016,0.07701447815,-0.005236943657,0.006764568597
3120,3.12,-0.002800928114,0.01023005525,0.01886875807,0.0845694882,0.01098646732,0.007622799284
3125,3.125,-0.005343097369,0.01180219079,0.1728298949,0.09950754366,0.01039489258,0.008207109147
3130,3.13,-0.01658465652,0.01345680068,-0.138815351,0.1194407738,0.02036839655,0.008347949331
3135,3.135,0.01525163552,0.01480971671,0.09644755089,0.1397007702,-0.0223950462,0.008010406167
3140,3.14,-0.01763797011,0.01554776281,0.0001710108853,0.1549028698,0.006506805663,0.007301318928
3145,3.145,0.005943288807,0.01550480599,-0.2575645562,0.1610597552,0.001536530687,0.006426257977
3150,3.15,0.001902703804,0.01471566762,0.147505967,0.1574568014,0.002142209486,0.005605070664
3155,3.155,0.005076670874,0.01342884198,-0.05178276749,0.1470864178,0.008747106877,0.004984614017
3160,3.16,-0.009942647911,0.01205176663,-0.1046117819,0.1350133241,-0.0004247789764,0.004598062779
3165,3.165,-0.008350692019,0.01104267741,-0.02077123854,0.1258240641,-0.005284310167,0.00438908441
3170,3.17,-0.001289184382,0.01078615621,0.0883207379,0.1220577034,-0.006301427764,0.00427689499
3175,3.175,0.02847253033,0.01150273217,-0.4439671609,0.1243973731,0.003707070953,0.004217854315
3180,3.18,0.02169035015,0.01322254837,-0.1004415661,0.1328717003,-0.003485708403,0.004230164102
3185,3.185,-0.01839578786,0.01579217501,-0.1871383828,0.1474861342,-0.002520347719,0.004379922913
3190,3.19,0.01060271248,0.018855214,-0.05720958972,0.1672626683,-0.005826224115,0.00474886213
3195,3.195,-0.0147567878,0.02183614647,-0.04687278224,0.1885853952,-0.004510783756,0.005400127477
3200,3.2,-0.009382001491,0.02401863706,0.3948955698,0.204854372,-0.01141528378,0.006349760468
3205,3.205,0.02987705134,0.02474480643,-0.562332999,0.2086396342,-0.007433016796,0.007550158409
3210,3.21,-0.05746404384,0.0236665094,0.315328354,0.1954736902,-8.577887514e-05,0.008894671305
3215,3.215,0.01844262624,0.02092957594,-0.1380380722,0.1666270921,0.02142805656,0.0102627363
3220,3.22,-0.01868356552,0.01717831791,-0.03685524468,0.1287961912,-0.02453820038,0.01160665605
3225,3.225,0.002184726448,0.01334037553,0.03401806936,0.09103132052,0.01894480836,0.01301574171
3230,3.23,-0.003469259518,0.01028884259,0.02980686925,0.06098605014,0.004000653097,0.0146626448
3235,3.235,0.003641365377,0.00856100769,-0.1492609834,0.04253905879,-0.009185246976,0.01663398479
3240,3.24,-0.005380779039,0.008255915564,0.03335430731,0.0355476698,0.001043584948,0.01877402968
3245,3.245,0.007355506456,0.009097089668,-0.03896891669,0.03711379528,0.07527123023,0.02069137941
3250,3.25,0.009496506167,0.01057439575,0.02227164363,0.04324275433,-0.06198596644,0.02196521533
3255,3.255,-0.01855866644,0.01210956582,0.07348754573,0.05017143599,0.02603151681,0.02239932573
3260,3.26,0.02048482858,0.01321570619,0.07941573695,0.0551763045,-0.002830380019,0.02207730405
3265,3.265,-0.005818722655,0.01361500945,-0.002445896695,0.05685248552,0.009129735887,0.02117687004
3270,3.27,0.003588203291,0.01326972976,0.0387601258,0.05493880019,-0.04119913003,0.01977002316
3275,3.275,-0.02198675265,0.01231938836,-0.096761977,0.04995461016,0.037078668,0.01781767882
3280,3.28,0.003746776105,0.01098604962,0.07484696591,0.042891941,-0.003226588092,0.01532528867
3285,3.285,0.003995417863,0.009503310184,-0.04777792679,0.03496876421,-0.01169474996,0.01247813123
3290,3.29,-0.01305657771,0.00807324815,0.004199352657,0.02732978088,0.001300937626,0.009665832781
3295,3.295,-0.002065868835,0.006845644105,0.04972854726,0.02074234926,0.008264269621,0.007432019632
3300,3.3,-0.01705167026,0.005913473013,-0.02440427286,0.01549555684,-0.002767453948,0.006380672195
3305,3.305,-0.004945540315,0.005316536107,0.00174263392,0.01155281805,0.001698816404,0.007029534115
3310,3.31,0.009451981932,0.005043297727,-0.002608000123,0.008756746471,0.005219599116,0.009629315122
3315,3.315,0.001977406769,0.005029024206,-0.005128446193,0.00692169653,-0.008070811,0.01402367118
3320,3.32,-0.005574568317,0.005164939007,0.01686523083,0.005837347825,-0.007425070576,0.01963397754
3325,3.325,0.006265817975,0.005331067973,0.005549736489,0.005271810538,-0.009445876181,0.02560954343
3330,3.33,-0.0009121834145,0.00544386305,-0.01108372197,0.005005484768,-0.03209372422,0.03109465978
3335,3.335,0.007489964221,0.005487273302,0.008394701928,0.004867997551,0.04278610854,0.03546586711
3340,3.34,-0.001364504029,0.00549672919,0.004810184129,0.004754790595,-0.01366286455,0.03842487092
3345,3.345,-0.0008542198523,0.005498990826,0.005965051622,0.004623196978,-0.0579932806,0.03998155734
3350,3.35,0.005941804801,0.00544933055,0.01309293126,0.004473365121,0.06972474071,0.04043939629
3355,3.355,-0.01116974552,0.005220854514,0.00208951145,0.004323171328,-0.04388930147,0.04040622786
3360,3.36,0.0008407031914,0.00467657642,0.0001613453952,0.004185935608,-0.08377312341,0.04070965636
3365,3.365,0.002061659744,0.003806046144,0.005695729634,0.004058642687,0.0362129624,0.04215677107
3370,3.37,0.005820298046,0.002869705218,-0.006312306401,0.003927096729,0.01709451279,0.04521039429
3375,3.375,-0.003346189497,0.002478434817,0.004081813957,0.003783006864,-0.06572725639,0.0497279953
3380,3.38,-0.0004808051991,0.00353698598,0.0002317770819,0.00364020221,0.07870771365,0.05492629616
3385,3.385,0.006582838342,0.007018725548,0.00808521304,0.003538823647,-0.1115169069,0.05962258256
3390,3.39,0.0123161397,0.01361218287,-0.00844310505,0.003535135742,0.005117825585,0.062635222
3395,3.395,-0.006632794947,0.02336216016,-0.001458029259,0.003681781688,0.1447659039,0.06309447204
3400,3.4,0.01098372628,0.03545969701,-0.0004480353704,0.003999145836,0.01361651181,0.06057970898
3405,3.405,-0.02733045043,0.04828230125,0.005076790168,0.004450663674,-0.06825390045,0.05519169335
3410,3.41,0.05146859579,0.05970879383,-0.005765712995,0.004945066964,0.06437869613,0.04754058042
3415,3.415,-0.2395152964,0.06768970939,0.01023704189,0.005365986074,-0.01944415882,0.03859830448
3420,3.42,0.1207258935,0.07092565217,-0.002872583538,0.005611335927,-0.04705983629,0.02943598351
3425,3.425,0.02606322093,0.06930661576,0.001869501808,0.005625328275,0.03583681631,0.02097989184
3430,3.43,-0.1432272014,0.06386896565,-0.005377770218,0.005411762669,0.006914340516,0.01389670166
3435,3.435,0.02175191879,0.05643039733,-0.004655063464,0.005028454828,-0.009076135699,0.008557730773
3440,3.44,-0.1075091436,0.04916862877,0.001424675635,0.004570714915,-0.01012272577,0.005022758392
3445,3.445,0.1203678554,0.04421634614,-0.006613064365,0.00414659639,-0.00415728977,0.003073861192
3450,3.45,-0.04251125167,0.04324070735,-0.01027553903,0.003846114948,-0.0005046607549,0.002313261995
3455,3.455,-0.04864797363,0.04689892493,0.001829312995,0.003714268155,-0.007119640566,0.002291735233
3460,3.46,-0.03972427446,0.05429487428,-0.002485141321,0.003741756769,-0.003173837908,0.002622130972
3465,3.465,0.04263100496,0.0629094355,-0.003907504459,0.0038758538,-0.003941156121,0.003043312303
3470,3.47,-0.03460819639,0.06936232852,-0.00289223174,0.004044168454,-0.003101820675,0.00342446166
3475,3.475,0.04529074532,0.07081263208,-0.002015180183,0.004183183804,-0.003539881652,0.003728519303
3480,3.48,0.07853998827,0.06619403633,-0.007014461403,0.00425949522,-0.003809426488,0.003962955995
3485,3.485,0.0180191989,0.05651174317,-0.0004094126329,0.004273081503,-0.001329056906,0.004138758372
3490,3.49,-0.02290479084,0.04423754632,0.001781825527,0.004243765297,-0.00776739946,0.004249704918
3495,3.495,0.09432194405,0.03235578004,0.001814900158,0.004191642167,-0.004923638118,0.004277297473
3500,3.5,-0.002134172493,0.02344511704,0.002157947332,0.004122818898,-0.003537011215,0.004210819684
3505,3.505,-0.01669325673,0.01898749858,0.004568699915,0.004028974576,0.002442786158,0.004062353155
3510,3.51,-0.01561032633,0.01901613554,-0.003153912058,0.003901416473,-0.002785903896,0.003867227104
3515,3.515,0.01052443341,0.02220026621,-0.005324263463,0.003747450318,-0.008720851397,0.003673636174
3520,3.52,0.0317196151,0.0263947338,-0.002864943617,0.00359833039,-0.0005554483609,0.003529749788
3525,3.525,0.05622044975,0.02949436623,0.004792789156,0.003503945832,0.0001106707366,0.003471988351
3530,3.53,0.006657772346,0.03026049713,0.003097097723,0.003513764813,-0.007754316351,0.003517759685
3535,3.535,-0.06624044318,0.0287185935,0.005024280714,0.003651107678,0.0002996271495,0.003665708763
3540,3.54,0.01465781412,0.02594259454,0.001495957706,0.003892759779,0.001782546196,0.003897661658
3545,3.545,0.007717175163,0.02341283261,-0.002917826282,0.004167578523,0.002056055885,0.004177521689
3550,3.55,-0.01278453198,0.02227630403,-0.005764048681,0.004379383675,0.01002155988,0.004451770286
3555,3.555,0.01852410514,0.02286863397,-0.002996174616,0.004442373018,0.001842072316,0.004658708962
3560,3.56,0.009727505981,0.02471210447,0.001487933696,0.004310342858,0.01444670443,0.004746225748
3565,3.565,-0.04063346923,0.02692698188,0.00967314581,0.003994168617,-0.002488902272,0.004686752906
3570,3.57,0.02996872925,0.02873616462,0.002027265449,0.003564560925,0.0050743009,0.004483732879
3575,3.575,0.05222243159,0.02974162951,-0.00401817945,0.003130442199,0.007163940029,0.004176468334
3580,3.58,0.01526914173,0.02991156889,0.001797591151,0.002797882617,-0.001495602489,0.003841934613
3585,3.585,0.03307488071,0.02938912075,-0.0007222415553,0.002635684286,-0.001692920577,0.003574064518
3590,3.59,-0.04805652825,0.02829838448,0.005920731781,0.002663282252,-0.0008351568047,0.003442018827
3595,3.595,0.009354843248,0.02667763617,0.001724576078,0.002857758729,0.001521690075,0.003457639626
3600,3.6,0.02691558021,0.02451709674,-0.003785707244,0.003170106094,-0.006796010467,0.00357330302
3605,3.605,0.01833070327,0.02184713743,-0.001699978307,0.003538559329,0.00401308294,0.003711401143
3610,3.61,-0.0673681044,0.01887961777,0.0002627082316,0.003896065969,-0.004880750971,0.003809966986
3615,3.615,0.02896549004,0.01612602304,0.000154190432,0.00417418535,0.002900346538,0.003855519141
3620,3.62,-0.02899225603,0.01435785536,0.005528427469,0.004306609801,0.004728346482,0.003880727003
3625,3.625,0.007300632965,0.01434395912,0.004534109863,0.004242330048,0.0003592962974,0.003929357396
3630,3.63,0.0004772572532,0.01647378267,0.00430333496,0.003969359436,0.0004774362135,0.004017937678
3635,3.635,0.004496561117,0.020498737,-0.009131238905,0.003536921986,-0.004283269343,0.00412754643
3640,3.64,-0.05856212429,0.02558675403,0.006985442435,0.003066009511,0.003213955661,0.004231277178
3645,3.645,0.03587542665,0.03071077024,-0.0006349241074,0.00273384182,-0.009739283384,0.004328979143
3650,3.65,0.005539032297,0.03514716042,0.003568474836,0.002727865824,-0.001471252319,0.004453958638
3655,3.655,-0.002717465482,0.03869049431,-0.003894916994,0.003186568346,0.003194464944,0.004646869818
3660,3.66,-0.007716073693,0.04143264129,-0.003600351762,0.004146324551,0.0004690606528,0.004922379872
3665,3.665,0.06037992229,0.04341327735,0.0005906863646,0.005504853799,-0.003503809135,0.005251971913
3670,3.67,-0.02678860882,0.04448817862,0.005186366347,0.007014725658,-0.01131646858,0.005572196994
3675,3.675,-0.000299549939,0.04447243354,0.00484916277,0.008326163784,-0.007113140983,0.005816305708
3680,3.68,0.001366784931,0.0433593142,-0.02115596569,0.00909297442,0.001977198684,0.00594943741
3685,3.685,-0.07173740131,0.04142116356,0.006345518742,0.009116725198,-0.01192539552,0.005982528787
3690,3.69,0.04259583622,0.03919096997,-0.006128210169,0.008439999781,0.00352479274,0.005955846176
3695,3.695,0.03837041036,0.03738181751,0.001939310173,0.007311911136,-0.008380461574,0.005907998398
3700,3.7,0.05823470771,0.03675542082,0.01502268749,0.006063239886,0.01168427329,0.005855496859
3705,3.705,-0.01094635642,0.03794300591,-0.01314083399,0.004982372651,-0.001399477717,0.005796347036
3710,3.71,0.05519436015,0.04123532907,0.0001814350055,0.004243205557,-0.01106039544,0.005734425427
3715,3.715,-0.001463015781,0.04643943964,0.0006286662559,0.003886015561,0.0001653571166,0.005705498452
3720,3.72,0.04002108343,0.05290899118,0.006565320598,0.00383959571,0.002947329482,0.005779052611
3725,3.725,-0.005296973606,0.05974156062,0.006927775125,0.003970212069,-0.0003661424867,0.006025377716
3730,3.73,0.1289894457,0.06603533578,0.001964071969,0.004136458117,-0.009353398639,0.00646964316
3735,3.735,-0.0826286605,0.07107077856,-0.0006882901042,0.004235040442,0.002912080381,0.007073193515
3740,3.74,-0.1639428406,0.0743941942,0.01020262625,0.004229062537,0.007828154456,0.007765685576
3745,3.745,0.1595412782,0.07585883674,-0.005891837621,0.004150858696,-0.01092466966,0.008505134047
3750,3.75,0.01163255146,0.07559217983,0.003464869536,0.004075436935,0.001604854706,0.009307598868
3755,3.755,0.0432647651,0.07384137503,-0.003387938148,0.004076130319,-9.415924366e-05,0.01020550493
3760,3.76,0.04471335591,0.07080939098,-0.004253774641,0.004185706548,0.004879544697,0.01116842193
3765,3.765,-0.001836960279,0.06672275326,-0.00912778733,0.004379132683,-0.03418726848,0.01207419037
3770,3.77,-0.02099924779,0.06213299585,0.00139822617,0.004584347996,0.03679364738,0.01277205814
3775,3.775,0.09290964027,0.05810926594,0.01080293367,0.004715245414,-0.0006049125562,0.01318227026
3780,3.78,-0.01688141917,0.05608760331,0.004307954383,0.004712518847,-0.003484704314,0.01333091425
3785,3.785,0.08938158271,0.0574327913,0.002984491707,0.004575638711,0.005437911704,0.01328992653
3790,3.79,-0.07116216809,0.06280646619,0.003683577115,0.004362794504,0.02012645086,0.01309799812
3795,3.795,0.02227861534,0.07160034755,0.003536201376,0.004157178873,-0.002653916114,0.0127419483
3800,3.8,-0.01379141152,0.08181066266,-0.002859242513,0.004025269272,-0.01464259728,0.01220803609
3805,3.805,0.1141637654,0.09056416681,0.005198838268,0.003988410422,0.01665283203,0.01153514199
3810,3.81,-0.3049856463,0.09517101988,-3.476008625e-05,0.004016749912,0.01592796704,0.0108090951
3815,3.815,-0.09243209646,0.09417872777,0.003835690536,0.004050066721,-0.00793275837,0.0101154016
3820,3.82,0.1009077435,0.08776951344,-0.006253726971,0.004036268409,0.0151838704,0.009507550603
3825,3.825,-0.09093566188,0.0773739547,-0.0060321137,0.003962386869,0.01635107235,0.009022078149
3830,3.83,0.02475494276,0.06495606264,-0.005725659218,0.003863697131,-0.01137733649,0.008719437963
3835,3.835,-0.05195290249,0.05245726766,0.001086356512,0.003815809558,0.0053588782,0.008707059911
3840,3.84,-0.04783653524,0.0416651901,0.004343956418,0.003920432284,0.009340564965,0.009112527741
3845,3.845,-0.09721851073,0.03428500129,-0.006457611572,0.004282689959,0.001184837857,0.01001635133
3850,3.85,-0.013907249,0.03182103776,-0.001480333961,0.004966041708,-0.01946328486,0.01138743278
3855,3.855,-0.005136418429,0.03512584559,0.009764847176,0.005937257718,0.005401754177,0.01306570795
3860,3.86,0.008869744119,0.04374875253,0.001544771169,0.007039225247,0.02438258705,0.01482773922
3865,3.865,-0.01926914903,0.05554085004,-0.000788617959,0.008016088797,-0.02446698345,0.01651179191
3870,3.87,0.00177851011,0.06698212677,0.002437916297,0.00858906182,0.004933806313,0.01809749657
3875,3.875,0.1488810837,0.07431544288,-0.0146484592,0.008558066413,0.01574417073,0.01964744974
3880,3.88,-0.02755760559,0.07503881401,0.004892456021,0.007888558547,-0.02587201308,0.02116718302
3885,3.885,-0.05723242957,0.06884598658,0.003996291939,0.006741318537,0.03443806757,0.02252713772
3890,3.89,-0.04997656293,0.05746095761,0.0006621462733,0.005421274677,5.252369718e-05,0.02351272726
3895,3.895,0.0239339205,0.04371087544,0.002967755757,0.004266732118,-0.0008703209525,0.02394573887
3900,3.9,-0.00877089853,0.0304698297,-0.001017132914,0.003536576373,-0.02559590221,0.02376714675
3905,3.905,-0.03158183798,0.01982399641,0.005158541954,0.003342711853,0.02309469634,0.02302374212
3910,3.91,-0.002871312657,0.01266113878,0.00406064429,0.003639618573,0.005765780538,0.02180677952
3915,3.915,0.01671109519,0.00878139633,-0.0002825485836,0.004261850708,0.03396341232,0.02022424897
3920,3.92,-0.01116063099,0.007329370888,0.01344750356,0.00499676895,-0.03689268623,0.01843035945
3925,3.925,-0.005504758268,0.007279588624,0.006426288741,0.005670129521,0.01046773889,0.01666673482
3930,3.93,0.0007837387537,0.007810686188,-0.002645451901,0.006206210373,-0.02135116803,0.01521549999
3935,3.935,-0.007432815543,0.008468494086,1.998357261e-06,0.00664354108,-0.002046670733,0.01424605513
3940,3.94,0.003808123948,0.009115896797,-0.02401192417,0.007124604229,0.02761704898,0.0136878313
3945,3.945,0.01574871464,0.009772163673,0.0109552593,0.00787445773,-0.02575521001,0.01325547832
3950,3.95,-0.02306745976,0.01045556945,0.0102920595,0.009145248116,0.02990455929,0.01261623607
3955,3.955,0.01725512605,0.01109747389,-0.002853909893,0.01110792358,-0.009765510795,0.0115781155
3960,3.96,-0.007765487703,0.01154562,-0.004857980532,0.01375388325,0.02212989086,0.01018837848
3965,3.965,0.01433820432,0.01163294733,0.02532900218,0.01687923852,0.003084252758,0.008696314767
3970,3.97,-0.0001255704267,0.01126152445,-0.009406134877,0.02014133778,-0.0006335464621,0.007415330422
3975,3.975,-0.01918434764,0.01045684497,0.02501412623,0.02310000574,0.000589721464,0.006574832157
3980,3.98,0.01189442176,0.009365575586,-0.0207331362,0.02520270314,0.005176260336,0.006244282285
3985,3.985,-0.00255651416,0.008198408569,0.007646122356,0.02583714733,-0.002265737528,0.0063517031
3990,3.99,0.004137139253,0.007146140221,0.06831446304,0.02457948808,-0.003094689593,0.006753398334
3995,3.995,-0.0007365621897,0.006315817188,-0.05920680726,0.02160476679,-0.000298092002,0.007293458347
4000,4,0.009738806869,0.00572971238,0.02896514685,0.01801005951,-0.003137996888,0.007823530853
4005,4.005,0.0009513586947,0.005372536582,0.01208866013,0.01570333985,-0.004930034524,0.008203632846
4010,4.01,-0.01649203373,0.00523882827,-0.008677601763,0.01677415843,0.006463854393,0.008314858755
4015,4.015,0.001953542381,0.00535924157,-0.00738752696,0.02263650032,-0.01338127342,0.008093146427
4020,4.02,-0.00799627984,0.005804152795,-0.002364320265,0.0333576291,-0.004039266792,0.007567943968
4025,4.025,-0.003609444528,0.006657642088,0.0004628740187,0.04748467432,-0.002573061066,0.006867564416
4030,4.03,-0.004605783567,0.007964493479,-0.01628645174,0.0624631275,-0.001434935948,0.006172247864
4035,4.035,-0.0009318806581,0.009670693697,0.04925485486,0.07545471681,0.004260564129,0.005641153179
4040,4.04,0.02405116971,0.01158512105,-0.115530049,0.08414684356,-0.004863564633,0.005357601694
4045,4.045,-0.02085445716,0.0133941271,0.04651000176,0.08730881718,-0.009520199235,0.005316822651
4050,4.05,-0.01619107492,0.01473860605,-0.1820424528,0.0851836287,0.004129605902,0.005446809404
4055,4.055,0.01960719412,0.01532862668,0.1092165675,0.07964300258,0.003738766225,0.005643308454
4060,4.06,0.01763219563,0.01504841584,-0.06149274563,0.07379170475,0.0003508296504,0.005808539145
4065,4.065,-0.003023782596,0.01399767481,-0.003070880882,0.0708827407,-0.01900703923,0.005887890709
4070,4.07,-0.0002931421679,0.01244409401,-0.03201425124,0.07292003972,-0.002023984348,0.005884650369
4075,4.075,0.004610586367,0.01071575286,-0.01569990985,0.07967044212,0.002659310752,0.005834943068
4080,4.08,0.01961086793,0.009101380901,0.1625734669,0.08860682331,-0.001207120541,0.005760112375
4085,4.085,0.01017766751,0.007801129752,0.2238184962,0.09590945173,-0.002672469002,0.00563752352
4090,4.09,0.01142455768,0.006915108444,-0.05688230463,0.0981723279,0.002141601959,0.005413806853
4095,4.095,0.01141763677,0.006439250805,-0.1365802573,0.09401902123,-0.008767175546,0.005049801488
4100,4.1,0.007196482006,0.006278050957,-0.1301861189,0.08476261788,0.00244771264,0.004567389407
4105,4.105,-0.002594319535,0.006292188298,-0.07190796216,0.07381973421,-0.006409868708,0.004064636639
4110,4.11,0.005923071604,0.006361526752,0.07431763822,0.06523184016,-0.002798958471,0.003690335559
4115,4.115,0.009235054987,0.006429845776,-0.03408720996,0.06204139022,-0.002824138835,0.003598913393
4120,4.12,0.003396696037,0.006518066586,-0.0225227845,0.0652734467,-0.003076647349,0.003897398476
4125,4.125,-0.005132197145,0.006707930829,0.07155590031,0.07380007479,-0.01137717371,0.00459658112
4130,4.13,0.00128314852,0.007092484911,-0.0367606743,0.0849009854,-0.005414265722,0.005590085933
4135,4.135,-0.003803716527,0.007705935233,-0.0539934374,0.09515974615,0.001419209438,0.006673296854
4140,4.14,-0.01568128746,0.008475758014,0.08555976538,0.1013747101,0.001852104782,0.007592291764
4145,4.145,0.009629565429,0.009236216151,0.03494907059,0.1013299345,0.005373972806,0.008109017756
4150,4.15,0.01101650858,0.009798102212,-0.1069675331,0.09447337401,0.001407145634,0.008078421181
4155,4.155,-0.02365230365,0.01003159858,0.1370163079,0.08235250924,-0.01153725636,0.007520095235
4160,4.16,0.02649783199,0.009923265859,-0.006413140461,0.0684390964,0.00063617327,0.00664701214
4165,4.165,-0.004783974079,0.009592558088,0.001830152608,0.05712324811,0.006422522885,0.005820387245
4170,4.17,-0.01042288479,0.009257761095,0.01910646337,0.05213448677,-0.006448610964,0.005437464385
4175,4.175,0.009598287385,0.009159582314,0.06906268269,0.05514043101,0.01008224456,0.005800502364
4180,4.18,0.003677477284,0.009479757645,-0.1358669993,0.06527443634,-0.003471695135,0.007009653994
4185,4.185,-0.02814245888,0.01028944193,0.2955687533,0.07977562399,-0.002657643309,0.008907276972
4190,4.19,-0.009632236614,0.01152930668,0.02691885176,0.0952976341,0.006093777091,0.01109941304
4195,4.195,0.009544764531,0.01300357845,0.09177272464,0.109275735,-0.0004001537271,0.01306059421
4200,4.2,0.01350543327,0.01440580964,0.3295611681,0.1209509972,-0.006570938983,0.01429089906
4205,4.205,-0.05179273522,0.01541895949,-0.06861449508,0.1317257164,0.003017548056,0.01447123554
4210,4.21,0.01503803007,0.01586431654,0.06659990679,0.1444395566,-0.0171404187,0.01355789081
4215,4.215,-0.004023762345,0.01579310425,-0.0984167135,0.1614747413,-0.01633462221,0.01178003751
4220,4.22,-0.03523626288,0.01545395551,0.2113417413,0.1825868259,-0.00836273582,0.009554794972
4225,4.225,-0.001201169725,0.01518338884,0.1227803699,0.2039985022,0.00584004495,0.007353863319
4230,4.23,-0.004507919062,0.01526457314,-0.2297248405,0.2196300165,0.00207385619,0.005569851693
4235,4.235,0.0196020395,0.01577492106,0.1920630667,0.2239753783,-0.007786236684,0.004430209297
4240,4.24,-1.410138033e-07,0.01652506441,0.4411432146,0.2150839543,-0.004656492115,0.003972367768
4245,4.245,-0.01033915797,0.01716619299,-0.2440580147,0.195827421,-0.003866197962,0.004062704113
4250,4.25,0.02976547403,0.01739391312,0.09997309894,0.1727855523,-0.0007286090386,0.004440311635
4255,4.255,-0.01155735667,0.0171034094,0.0702260157,0.1535060857,0.004995577864,0.004786268865
4260,4.26,-0.009412357999,0.01639270672,0.08344492021,0.1433144731,0.004157623297,0.004829452607
4265,4.265,0.005166751115,0.01544847569,0.04865723809,0.1429915885,-0.01572273007,0.004475889205
4270,4.27,-0.01285900275,0.01444232601,0.1234885559,0.1485718544,-0.004351774228,0.003912475037
4275,4.275,0.01625822696,0.01351064584,-0.3177136153,0.1534590922,-0.003005830504,0.003625035068
4280,4.28,-0.02262807272,0.01278202217,0.6211891806,0.1517908595,-0.006869206359,0.004303572503
4285,4.285,-0.0024031677,0.01238289966,-0.02693645687,0.1413108905,-0.005292492413,0.006654956861
4290,4.29,0.005369831718,0.01239513481,0.0007645620165,0.1239758859,-0.01139946273,0.0111681815
4295,4.295,-0.005915631157,0.01278621433,-0.09686206415,0.1041860902,0.04285845761,0.01789411616
4300,4.3,0.005510994738,0.01338133533,-0.04574080962,0.08635940728,-0.02762125101,0.02629788673
4305,4.305,-0.005519459413,0.01391243123,-0.1187596659,0.07319014333,0.00895272598,0.03521547087
4310,4.31,-0.009710770098,0.01412756192,0.1052986956,0.06504483925,0.06481363977,0.04297129518
4315,4.315,0.006871293166,0.01393482845,-0.1012171631,0.06048396936,-0.0199265011,0.0477589407
4320,4.32,-0.001008384987,0.01349316049,-0.008795090379,0.05740319042,-0.01907399922,0.04825563813
4325,4.325,-0.009673104543,0.01313979047,0.1941077922,0.05406794602,0.01158401548,0.04417858005
4330,4.33,-0.0132864268,0.01317627271,0.02637708626,0.04964411837,0.01890503609,0.0364517858
4335,4.335,-0.002908142812,0.01365356072,-0.002375877792,0.04415644956,-0.01411157126,0.02689290898
4340,4.34,0.02686477014,0.01429495916,0.0236480178,0.03805953249,0.005110127595,0.01759303064
4345,4.345,-0.01781031607,0.01462118336,0.04476448851,0.03184112751,-0.001401758836,0.01024427962
4350,4.35,0.007108008326,0.01421439247,-0.02580754738,0.02589935608,0.004499570062,0.0056692843
4355,4.355,0.003112577753,0.01294457596,0.008727085282,0.02058214057,-0.007409534603,0.003719217724
4360,4.36,0.01026503891,0.01101833036,-0.02367708027,0.01618740218,-0.002493720935,0.003528504041
4365,4.365,0.002560926902,0.008857540113,-0.01416485139,0.012879666,0.001405662597,0.003968575854
4370,4.37,-0.0002201093803,0.006901851512,-0.007997005469,0.01061578308,-0.0007804147426,0.004111408529
4375,4.375,-1.275932981e-05,0.005443715149,0.0003687639692,0.009161313861,0.003245536386,0.003573939853
4380,4.38,-0.001044278233,0.004575179853,-0.005015938365,0.008197195179,-0.00410902134,0.002676682965
4385,4.385,-0.003989419262,0.004246270689,-0.01756843011,0.007457016849,-0.00926646782,0.002376921242
4390,4.39,-0.002532962752,0.004359174251,-0.0009949359824,0.006808875409,0.006213533928,0.003960153931
4395,4.395,-0.002684187222,0.004822227274,0.002604037249,0.006245255844,0.002840464808,0.008538843771
4400,4.4,0.003271994846,0.005541871317,0.01080317146,0.005811825237,-0.003469359907,0.01650597003
4405,4.405,0.00300173145,0.006379429531,-0.002773496806,0.005535411742,-0.002383049817,0.02716222663
4410,4.41,-0.006748010456,0.007125274364,0.00563903973,0.005385999602,0.03138083792,0.03871794518
4415,4.415,-0.01248616035,0.007530899309,0.006847628558,0.005281068715,-0.05692679393,0.04874857264
4420,4.42,-0.002793217512,0.007399484813,-0.003824075033,0.005129557407,-0.01156106039,0.05496796308
4425,4.425,-0.005373924444,0.006703611117,0.004310219678,0.004877703619,0.02862613223,0.05598970078
4430,4.43,0.007181527747,0.00567852297,0.009257236473,0.004524449399,-0.06838434697,0.05175001599
4435,4.435,-0.0004689622535,0.004842958159,-0.003498121953,0.004115856578,0.02661713257,0.04347308659
4440,4.44,0.005032432298,0.004927826614,0.007032945787,0.003734297361,-0.0247482512,0.03320828933
4445,4.445,0.002413164578,0.006717363236,-0.0003226914714,0.003488787809,0.008687184115,0.02310163726
4450,4.45,0.00837876719,0.01082621534,0.002400882789,0.003505428013,-0.008663625002,0.01474633117
4455,4.455,-0.01737150997,0.0174668784,0.003308172568,0.003906783864,0.004989892398,0.008889565287
4460,4.46,0.02553610204,0.02629970855,-0.004886811119,0.004773673412,0.008651395301,0.00551175983
4465,4.465,0.01577186213,0.03644433443,0.008931040346,0.006097389563,0.00156633534,0.004101731972
4470,4.47,0.0006073952166,0.04667128787,-0.01015793262,0.007742864237,-0.002051751578,0.003949517808
4475,4.475,0.03729638741,0.05573562302,0.01180115499,0.009450756506,-0.007350720759,0.004374979281
4480,4.48,0.09759029591,0.06274273009,-0.01084040694,0.01089307952,0.001401744878,0.004868864424
4485,4.485,0.09285639647,0.06737950288,-0.01801510238,0.01176784182,-0.01047186779,0.005148156713
4490,4.49,-0.1889279186,0.06983801983,0.02538104388,0.01189365631,-0.003230190649,0.005142834041
4495,4.495,0.1254678885,0.07047916859,-0.009538301247,0.01126282569,0.0007761707995,0.004934470971
4500,4.5,0.1513821824,0.06953481618,-0.01198790795,0.01003403768,-0.005052706407,0.004667442706
4505,4.505,0.06988593766,0.06702930521,-0.005224189353,0.008479619372,0.008914760577,0.004465596668
4510,4.51,-0.04291703191,0.06292607322,-0.01061185934,0.00691440255,-0.004542297611,0.004385347281
4515,4.515,-0.01779061957,0.05730648106,0.003657068926,0.005611521469,0.007366661387,0.004413380424
4520,4.52,-0.1127113272,0.0504585494,-0.009030128809,0.004725471085,-0.003134426634,0.004493636361
4525,4.525,0.003233305159,0.04293522828,-0.001472541305,0.004261720672,0.007486392155,0.004562047411
4530,4.53,-0.02381294411,0.03556225032,-0.009943123559,0.004112744889,-0.005009540086,0.004572569563
4535,4.535,-0.01722192431,0.02935105252,-0.01033715903,0.004141931566,0.001918969368,0.004509174382
4540,4.54,-0.02941543094,0.02533812007,0.004801191418,0.004270134417,-0.003103209042,0.004386692945
4545,4.545,0.009050753231,0.02432194105,-0.003038125344,0.004517377414,0.001619689013,0.004244877103
4550,4.55,0.02380563404,0.02654671796,0.002700762426,0.004979581322,0.0004185385387,0.004133464917
4555,4.555,-0.02723968464,0.03151502723,-0.005330311688,0.005754981337,-0.001564727592,0.004090640972
4560,4.56,0.01640200938,0.03805886608,0.002450326325,0.006855803436,-0.002268770248,0.004125309879
4565,4.565,-0.05879902651,0.04466605749,0.006729361047,0.008147825443,-0.004600165893,0.004213297399
4570,4.57,-0.04415215912,0.04994095407,-0.006595808399,0.009354521067,0.00855066752,0.0043106232
4575,4.575,0.08113844248,0.05296565165,-0.002074230727,0.01013949487,-0.0002480665036,0.004377163586
4580,4.58,-0.02562233042,0.05337496608,0.008809640755,0.01024062175,-0.001004607388,0.004396835841
4585,4.585,0.03818432458,0.05120453431,-0.01520011865,0.009595195114,0.00268174289,0.004381895883
4590,4.59,-0.08263753734,0.04675691179,-0.00640789338,0.008382067333,-0.008997619234,0.004364120638
4595,4.595,0.02355982644,0.04058210535,-0.008093783702,0.006941561658,0.005485927532,0.004379803887
4600,4.6,-0.02220598889,0.03344168559,-2.963632169e-05,0.005622601432,-0.003483559917,0.004451901641
4605,4.605,-0.01165910803,0.02622011911,-0.002195218942,0.004649956509,0.002333005303,0.004574577112
4610,4.61,0.0001442747656,0.01983484294,-0.00401069341,0.004069560763,0.002358042966,0.004709270054
4615,4.615,-0.009256233807,0.01507579261,0.007849551213,0.003780987732,-0.008385801155,0.004799587948
4620,4.62,-0.008659316171,0.01240942006,-0.003013277904,0.003627837705,-0.0049834808,0.004799327516
4625,4.625,0.01589077261,0.01190966706,0.001030469302,0.003492088056,0.006947561854,0.004698407617
4630,4.63,0.03415580544,0.0133344787,-0.002250885079,0.003343063632,-0.008398606027,0.004534153344
4635,4.635,-0.003119721491,0.01621976978,-0.002465712248,0.003227691685,-0.005196205899,0.00438215201
4640,4.64,0.002337077929,0.01987590575,0.0006798438855,0.003220770416,-4.258261424e-05,0.004331264439
4645,4.645,0.02371199639,0.02334701569,0.002059384554,0.003365384783,-0.007773965962,0.004453924042
4650,4.65,-0.04213868818,0.0255257789,0.004219271816,0.003635318066,0.005195601217,0.004780331815
4655,4.655,0.07540596229,0.02550641295,-0.006188895542,0.003936621755,-0.007133312019,0.00528074144
4660,4.66,0.01460485988,0.02299598191,0.007437751198,0.004144969822,0.004523767506,0.005863721109
4665,4.665,0.004564787778,0.01846968711,0.004197932363,0.004160529445,0.002485801658,0.006400666168
4670,4.67,0.003927131551,0.01295129035,-0.002247405591,0.003953193194,-0.00271385038,0.006768509053
4675,4.675,-0.01372152335,0.007614487284,0.001341161945,0.003575906507,-0.009555003738,0.006890617005
4680,4.68,-0.01870304392,0.003470400012,-0.008002719184,0.003149698138,-0.01245878845,0.006760404202
4685,4.685,0.0003290178644,0.001239789008,0.005586928941,0.002836356355,-0.00974452065,0.00644277156
4690,4.69,0.005798397847,0.001348460066,-0.000499942952,0.002800925622,-0.003908915581,0.006049375678
4695,4.695,-0.009239387808,0.003956560875,-0.0008284582499,0.003162110332,-0.002963982642,0.005690601283
4700,4.7,-0.01604191074,0.008976560688,0.007283905917,0.003942410905,-0.004380962158,0.005424354996
4705,4.705,-0.03095072636,0.01606069339,-0.002486111346,0.005036835693,-0.01345274278,0.005236395485
4710,4.71,0.03430794307,0.0245747054,-0.001115431496,0.006217156383,0.010746295,0.005069663219
4715,4.715,0.01644368182,0.0336157247,-0.01084283702,0.007186094859,-0.000162717166,0.004873669611
4720,4.72,-0.001818102136,0.04213994969,0.04227030955,0.007684668626,-0.002781655375,0.004633370234
4725,4.725,-0.06217210907,0.04921839596,0.004442987077,0.007610321714,-0.005033883273,0.004369813256
4730,4.73,0.008624606102,0.05427394635,-0.01564847704,0.007061875272,0.008588787046,0.004131406857
4735,4.735,-0.107103886,0.05708767546,-0.00906452808,0.006280156218,-0.004141718089,0.003984799832
4740,4.74,0.05807170334,0.0576183803,0.002642520815,0.005541317086,0.002165033362,0.004001433727
4745,4.745,-0.03609793713,0.05589347581,0.005963231792,0.005062086201,-0.001030318032,0.004239041683
4750,4.75,0.0756113926,0.05213880967,-0.00518560577,0.004948767299,0.003711628264,0.004715812968
4755,4.755,0.0235897891,0.04708665173,0.006320748195,0.005190826087,0.005124124214,0.005380530427
4760,4.76,-0.00909836015,0.04213785188,0.005792134587,0.005676393151,-0.003720710543,0.006103032815
4765,4.765,-0.0296105051,0.03907840406,-0.003654457437,0.006220467737,0.001403182014,0.006708213489
4770,4.77,0.007222344064,0.03935348832,0.01427777194,0.006614231411,-0.002341189474,0.007039844004
4775,4.775,-0.007329470873,0.04325991133,-0.0004912737334,0.006695987557,-0.01568126444,0.007016485614
4780,4.78,-0.02755651751,0.04958911548,-0.005008873296,0.006414630892,0.002227364368,0.006660610115
4785,4.785,-0.02024563561,0.05598931539,0.00508508009,0.005850525354,0.01261004306,0.006101582486
4790,4.79,0.002002146326,0.05992920095,-0.002189090565,0.005187541417,-0.002818937065,0.005555503306
4795,4.795,0.1029945487,0.059897963,-0.003772710166,0.004649603196,-0.0001029622178,0.005276715852
4800,4.8,-0.1861304028,0.05632763948,0.0009934852962,0.004423758756,0.01103523713,0.005485617303
4805,4.805,0.08576804443,0.05176710575,-0.0006025283959,0.004601484144,-0.0004874680968,0.00630764007
4810,4.81,0.018332604,0.05011095441,0.006247077825,0.005162236725,-0.0203522407,0.007749989404
4815,4.815,-0.02619570932,0.05500825486,-0.01950230326,0.005996165194,-0.007786581187,0.009700067278
4820,4.82,0.0681470954,0.06803663408,0.01172079695,0.006943517499,-0.009247816114,0.01191306313
4825,4.825,0.002307821858,0.08751495908,-0.008061684593,0.007830857161,0.01492110918,0.01400108114
4830,4.83,0.05201282356,0.1086368175,-0.00489928263,0.008499610534,0.01034968443,0.01548158976
4835,4.835,0.1454816391,0.1250639036,0.012148105,0.008834353145,-0.01675935631,0.01591945363
4840,4.84,0.162501539,0.1314142557,-0.00355968556,0.00879123283,0.04445658414,0.0151274682
4845,4.845,0.04807598194,0.1255053519,-0.0007168215047,0.008407554525,0.004678115964,0.01331202138
4850,4.85,0.1320097849,0.1092373306,-0.01292520828,0.007779432193,-0.009159354571,0.01103715804
4855,4.855,0.1855302251,0.08767297635,0.001870697945,0.007029201896,0.0007073830433,0.009000111481
4860,4.86,-0.00761186624,0.06687163978,-0.003442588868,0.006281718424,-0.002439799107,0.007759384665
4865,4.865,-0.007874290042,0.05161704946,0.0006412627281,0.00564582524,-0.006428476543,0.00755861946
4870,4.87,-0.06008638187,0.04398249453,0.001307186247,0.005199682596,-0.01435438146,0.008294893546
4875,4.875,-0.05570974744,0.04319812592,0.00380079898,0.004983206173,0.006983393973,0.009609645485
4880,4.88,0.07530887952,0.04664869204,0.00588434106,0.004996624875,-0.02015120556,0.01105876125
4885,4.885,-0.03912525784,0.05133339854,0.002139137749,0.005208606505,-0.005444806385,0.01230104166
4890,4.89,-0.07348760238,0.05509233441,0.00830339189,0.005570817859,0.009654201645,0.01323120136
4895,4.895,0.1732699304,0.05724871088,-0.007376516022,0.006034514254,-0.01556557393,0.01401028702
4900,4.9,-0.04798743681,0.0585485007,0.007818802177,0.006565957137,0.02741943029,0.01499545731
4905,4.905,0.05712445775,0.06044521695,0.004476772813,0.00714258333,-0.03727727186,0.01658993166
4910,4.91,-0.009376394102,0.06405121704,-0.006376061862,0.007725060502,0.01513748693,0.01905020603
4915,4.915,-0.005173353321,0.069294645,-0.01093419967,0.008234655503,0.02695349546,0.02229485612
4920,4.92,-0.08009102014,0.07476724827,0.005595023103,0.008564018037,-0.02775805224,0.02581721879
4925,4.925,0.2349163613,0.07840045455,-0.009112482583,0.008623365257,-0.006496030535,0.02881852385
4930,4.93,-0.04667444991,0.07857566598,0.004313775609,0.008389515476,0.00366393416,0.03053605028
4935,4.935,0.006964300844,0.07495110653,0.004195109975,0.00791555838,-0.0508271898,0.03058162579
4940,4.94,0.05755139586,0.0685141584,0.005095161031,0.007301128657,0.03114110768,0.02908387356
4945,4.945,0.05639314106,0.06096368078,-0.01223288228,0.006650194328,-0.0267727192,0.02657385271
4950,4.95,-0.02808994327,0.05384002632,0.001532700942,0.006036405866,-0.006495108193,0.02371011471
4955,4.955,0.04946806211,0.04784064792,0.006467266846,0.005490837478,0.04654139747,0.02099977734
4960,4.96,-0.1474877671,0.04267837231,0.007936676531,0.005016028505,-0.03698409001,0.01865551218
4965,4.965,0.03833771892,0.03755171182,-0.01232370498,0.00461707704,0.03307932412,0.01663527551
4970,4.97,-0.1015025888,0.03181972036,-0.006694234789,0.004328486583,0.004615104682,0.01479796052
4975,4.975,-0.01575909546,0.02540723955,0.008317179538,0.004217231194,-0.008446088782,0.01306853065
4980,4.98,0.01838139713,0.01881497901,0.0002916999631,0.004355565208,0.002120851668,0.01150525284
4985,4.985,0.00123853067,0.01282410554,-0.001978290268,0.004772151933,-0.02634038714,0.01024507377
4990,4.99,-0.01085070561,0.008121661646,-0.005818116861,0.005409284022,-0.01349862884,0.009404456908
4995,4.995,0.002002479989,0.005055300002,-0.006633630018,0.006118364299,-0.001712590486,0.009006228559
5000,5,0.008450661662,0.003579455313,0.007431750482,0.006708372055,0.009924620647,0.008950655231
5005,5.005,-0.002678864559,0.003353061227,0.01631950088,0.007040457493,-0.02155852668,0.009034437282
5010,5.01,-0.008325393142,0.003912121319,0.009565680377,0.007131060663,-0.009741225094,0.009018987737
5015,5.015,0.002858282363,0.004834247318,-0.01031334993,0.00719158588,0.00431606749,0.008721210695
5020,5.02,-0.001328081229,0.00584807492,-0.001490033191,0.007542350812,-0.001141332592,0.008083942072
5025,5.025,-0.005296503258,0.006867292796,0.00101934892,0.008435658394,0.005430762351,0.007191423911
5030,5.03,-0.01152203446,0.007946294156,0.0118588813,0.00990508306,-0.002731290084,0.006229578946
5035,5.035,0.001529014348,0.009168399256,-0.003584771197,0.01173775921,0.0006018790883,0.005423710315
5040,5.04,-0.0005751739232,0.01050404577,-0.01244650128,0.01360074844,0.008554686846,0.004977743302
5045,5.045,-0.02179216832,0.01172740233,-0.001231148144,0.01528755101,-0.006313965421,0.005023245922
5050,5.05,0.01775937457,0.01247263737,0.01592156115,0.01697561026,-0.008696849985,0.005579111746
5055,5.055,0.006246075609,0.01242029163,-0.01886027794,0.01937427404,-0.001131049985,0.006522131812
5060,5.06,-0.01424778643,0.01149743178,-0.03431736446,0.02365801999,-0.001956241308,0.007588483219
5065,5.065,-0.003798373614,0.009955254106,0.009007808982,0.03107790984,-0.002645411703,0.008436969765
5070,5.07,-0.01019228282,0.008289297769,0.02031839025,0.04230340145,-0.008915985739,0.008773948681
5075,5.075,0.005990778531,0.007062555377,-0.1044423198,0.05681320318,-0.01416605662,0.008482137369
5080,5.08,0.01180077107,0.006712513516,0.05836214967,0.07270849614,0.003305233818,0.007677174881
5085,5.085,-6.739673511e-05,0.007403341663,-0.1037925082,0.08705786104,-0.005746213531,0.006657460224
5090,5.09,-0.004787509709,0.00896231267,0.1396146146,0.09664656196,0.0001783226234,0.005775081306
5095,5.095,0.0110132769,0.01093060561,-0.1258685766,0.09905469691,-0.004956672701,0.005293102758
5100,5.1,-0.008818565446,0.01272381588,-0.2349042457,0.09386600963,0.001353392198,0.005290242099
5105,5.105,-0.01629075626,0.01382964773,-0.01499587634,0.08338398408,-0.004888611619,0.005651188076
5110,5.11,0.01429253453,0.01395458834,-0.05997067396,0.07215656059,0.01045242542,0.006142156263
5115,5.115,-0.003353424039,0.01308959359,0.06450450508,0.06529601787,-0.00374976689,0.006527829078
5120,5.12,-0.03360028703,0.01148641236,-0.01641911904,0.06642230019,0.005457536078,0.006666754115
5125,5.125,0.007287591359,0.009560313605,0.1300176068,0.07617800454,-0.01209717151,0.006541108721
5130,5.13,0.01445074517,0.007760638591,-0.1501429478,0.09192506634,0.01192983788,0.006226935723
5135,5.135,-0.0001724741497,0.006440402553,0.0611018603,0.1086928061,-0.004354860013,0.005843957495
5140,5.14,-0.004277106871,0.00576627406,-0.0212831419,0.120968798,0.003604925084,0.005512963957
5145,5.145,0.01048423595,0.005707466543,0.2295096098,0.1247855739,0.006381554016,0.005325200888
5150,5.15,0.009742297357,0.006106779555,-0.004565366514,0.1194589495,0.003321422716,0.00532144684
5155,5.155,-0.01123045997,0.006790043053,0.1695272378,0.1080580907,-0.00869400933,0.00548417887
5160,5.16,-0.005623954299,0.007646612037,0.1144284109,0.09606073899,0.003315171614,0.005747630872
5165,5.165,0.001681198729,0.008634211064,-0.05193898453,0.08881057015,-0.0008512570867,0.006024083103
5170,5.17,-0.0064245192,0.009718851922,0.004838938085,0.08907135596,-0.006705818168,0.006233285115
5175,5.175,-0.007959068243,0.01080897323,0.07567837506,0.09588441629,0.002185685732,0.006324158255
5180,5.18,-0.0162028492,0.01173783423,-0.08963074804,0.1052523189,-0.006662041265,0.006282202285
5185,5.185,-0.02505089637,0.01230745082,0.3805077355,0.1122292567,0.009411428821,0.006120285037
5190,5.19,0.02312072032,0.01236996986,0.02441661128,0.1133216605,-0.01020885447,0.005870370208
5195,5.195,-0.002864850746,0.01190816484,0.03329978087,0.1078692146,-0.004040074597,0.005597866051
5200,5.2,-0.00980951158,0.01106668086,0.08559984532,0.09773933761,0.006020238098,0.00543471426
5205,5.205,0.01263620209,0.010112832,-0.1532571004,0.08599996142,0.000555036079,0.005592163322
5210,5.21,-0.007408864454,0.009368227783,-0.03250022864,0.07562617415,-0.0006288555046,0.006308609232
5215,5.215,0.004626769224,0.009141776302,0.00892578803,0.06869628085,-0.01149850692,0.007732034243
5220,5.22,-0.004755063567,0.009647383933,-0.1134280345,0.06600412144,0.002953320078,0.00979096074
5225,5.225,0.01013690277,0.01090758479,0.08664008051,0.06705275359,-0.007701433361,0.01212850011
5230,5.23,-0.003023369081,0.01269931368,0.2074420773,0.0704898928,0.0140223093,0.01415913655
5235,5.235,0.02241175484,0.0145975565,-0.04513709261,0.07479960986,-0.04836898733,0.0152684816
5240,5.24,-0.0364980493,0.01612942042,0.1388934369,0.07889993152,0.006545775638,0.01509278069
5245,5.245,-0.01429285008,0.01697337985,0.07853451641,0.08234270808,-0.01330541184,0.01371712563
5250,5.25,0.009928243069,0.01708118076,-0.05777816592,0.0851811052,-0.01693046068,0.01164751694
5255,5.255,-0.02455978686,0.01666155771,-0.05203628393,0.08777227296,-0.002566692672,0.009571280954
5260,5.26,-0.01501788263,0.01606738729,0.07855646184,0.0905658108,-0.007242343169,0.00805846743
5265,5.265,0.004105641771,0.01564543696,-0.0993659121,0.09387033095,-0.003943783741,0.007359021376
5270,5.27,0.004371616574,0.01560865486,-0.0776652812,0.09786264601,-0.007763375128,0.007363035619
5275,5.275,0.03848733415,0.01599286948,0.2444861985,0.1028872041,0.003485744113,0.00770700898
5280,5.28,0.01589985031,0.01669896105,-0.2852294088,0.1096493807,-0.02118469901,0.007961988517
5285,5.285,0.006489765531,0.01756660155,0.1241748625,0.1189205846,-0.00360956533,0.007822324876
5290,5.29,-0.02761609651,0.01842523724,0.07466179246,0.1307849798,-0.005403596055,0.007213020352
5295,5.295,-0.005814438518,0.01912310932,-0.02957499303,0.1439058467,-0.003946830037,0.006275701889
5300,5.3,0.03300265445,0.01955318912,0.3114126718,0.15551665,-0.001516111349,0.005265149519
5305,5.305,0.03347797035,0.01968641465,0.2853103944,0.1624203277,-0.006889932982,0.004424800353
5310,5.31,0.009620567832,0.01961242154,0.04626656891,0.1623631015,0.001988063458,0.003896000737
5315,5.315,-0.01848355683,0.01953974227,0.1198053565,0.1548113864,-0.006624993073,0.003687520699
5320,5.32,0.02598293085,0.01971106948,0.02740581505,0.1409276888,-0.007547295242,0.003702476927
5325,5.325,0.01865641275,0.02026365226,-0.1429501888,0.1230680619,0.0005084827259,0.003796648801
5330,5.33,-0.01160630653,0.02110992033,0.03275319396,0.1040157243,-0.001350354686,0.003839251383
5335,5.335,0.007137258345,0.02193586285,-0.0572382338,0.08616039668,0.008587922746,0.003763961428
5340,5.34,-0.009227195842,0.02233580007,0.1419984617,0.07089495646,-0.003024341653,0.003605613818
5345,5.345,-0.02336120886,0.02199568523,-0.1558621426,0.05856134209,-0.00411573997,0.003505741267
5350,5.35,-0.03320236747,0.02083493124,-0.01218551063,0.04892215309,-0.002489802344,0.00367545397
5355,5.355,-0.01223478217,0.01904631648,0.02381981812,0.04160405396,-0.004450870924,0.004326126462
5360,5.36,0.008522367205,0.01701007354,-0.06604594003,0.03616413246,0.004209237126,0.005580737708
5365,5.365,0.008889427465,0.0151286884,0.02028065548,0.03206255765,-0.009740052852,0.007383215892
5370,5.37,-0.001681595431,0.01366758173,0.001741575265,0.02876840705,0.01341853007,0.009450147504
5375,5.375,-0.00925071115,0.01267622649,-0.03007441033,0.0259114883,0.01894922059,0.01131556956
5380,5.38,-0.006619462527,0.01204510678,-0.003728254168,0.02335380589,-0.02619564914,0.01247948697
5385,5.385,0.02179417415,0.01165720001,0.007474641725,0.02113080534,0.02532032922,0.01260292581
5390,5.39,0.02309213278,0.01148702449,-0.03574075884,0.01933517049,0.00123675251,0.01163802656
5395,5.395,0.006769307722,0.01156117312,0.02668632644,0.01802193056,-0.003509411986,0.009812606099
5400,5.4,-0.001226304686,0.01183555831,-0.001850937908,0.0171210851,-0.004806306779,0.007504651877
5405,5.405,-0.01221771508,0.01210623426,0.02425967474,0.01637927466,0.005344569134,0.005121335753
5410,5.41,0.005319094764,0.01204127731,0.0268171339,0.01541882312,-0.0003358205826,0.003057700078
5415,5.415,0.01128307566,0.01133440503,0.03318833445,0.013930648,0.004021433349,0.001721713227
5420,5.42,0.009292417919,0.009882099477,0.007030327267,0.0118698279,-0.0007558032574,0.001564654782
5425,5.425,0.005875980311,0.00786826643,0.002381935903,0.009482481085,-0.001542568149,0.003051593223
5430,5.43,-0.004989452061,0.005732134252,0.004884726749,0.007157579196,-0.00622826884,0.006536018514
5435,5.435,0.001549900244,0.004058008637,-0.001075184691,0.005248596627,0.005196275805,0.01207406775
5440,5.44,-0.002891033374,0.003412274064,0.003491373254,0.003968028308,-0.01404422429,0.01927178489
5445,5.445,0.003854756,0.00415596159,0.0002602729416,0.0033581798,0.02295776349,0.02726778262
5450,5.45,-0.0005870514342,0.006285515642,-0.002458147783,0.003310213674,-0.03721437239,0.0349051485
5455,5.455,-0.008408143628,0.009364830947,0.004501063763,0.003615331397,-0.0631519509,0.04103425608
5460,5.46,-0.002632746503,0.01260118725,-0.0006511864491,0.004034361359,0.06796144072,0.04481595761
5465,5.465,-0.02474977617,0.0150838795,0.0007801960298,0.004369402945,-0.09765489256,0.04594303664
5470,5.47,-0.0002655190577,0.01613434301,0.01059275417,0.004516405322,0.005222376913,0.04469838634
5475,5.475,0.01016085135,0.01563325473,0.000191840695,0.004480490992,0.0272843658,0.04179592091
5480,5.48,-0.01655064388,0.0141526752,-0.007536772614,0.004349340626,-0.04835314417,0.03812273843
5485,5.485,-0.004904236608,0.01281231571,-0.003881587992,0.004239416911,0.01393717945,0.03450130922
5490,5.49,0.02200242962,0.012919989,0.001669751709,0.004244005536,-0.02854882726,0.03145717173
5495,5.495,0.01836801801,0.01552969539,-0.005827272241,0.004402019926,-0.01137812262,0.02907283881
5500,5.5,0.007909325962,0.02104023978,-0.0008712608667,0.004692464002,0.02800861018,0.0270174584
5505,5.505,-0.05590801872,0.02894251473,0.000157615113,0.005048146992,0.009016403391,0.02474097292
5510,5.51,0.001872891252,0.03783393739,0.003816442896,0.005378968212,-0.02030966435,0.02176783649
5515,5.515,0.07005563027,0.04574706818,0.008261044508,0.005601232024,0.04281286992,0.01797333467
5520,5.52,-0.04612997494,0.05074528368,0.00461365647,0.005666803541,-0.006883308147,0.01369176183
5525,5.525,0.04307968962,0.0516234597,-0.0008271401915,0.005575077018,-0.007203661071,0.009573078629
5530,5.53,-0.09236040372,0.04838841196,0.006654367089,0.005363466229,-0.005503105572,0.006290670737
5535,5.535,0.01834667935,0.04224216614,0.006111051369,0.005091150509,-0.002809644348,0.004281405987
5540,5.54,-0.01032758195,0.03505891247,-0.002626075093,0.004826412864,0.001467973131,0.003617634998
5545,5.545,0.0006472152403,0.02861404382,-0.003437345677,0.004636073396,-0.002153277963,0.004023616889
5550,5.55,0.01461378659,0.02402720482,0.003736484008,0.004575586858,0.01079226069,0.00500414895
5555,5.555,0.002761186195,0.02171028794,-0.001167045288,0.004677796219,-0.003377620519,0.006029373855
5560,5.56,0.002791275037,0.0216655744,-0.001968182178,0.004936571631,-0.01189831896,0.006701786761
5565,5.565,0.001150431881,0.02373127074,-0.007022779313,0.005295359609,-0.005881299015,0.00684539682
5570,5.57,0.03118159207,0.02757764182,0.01403176056,0.005656189921,0.01368084962,0.006503050425
5575,5.575,-0.01697390818,0.03257461139,-0.0009488176715,0.005911932805,-0.01047749558,0.005865951053
5580,5.58,0.03508120754,0.03775403674,-0.001072097599,0.005988371061,-0.005095890185,0.005178470402
5585,5.585,-0.1712963744,0.04199710496,0.003788337443,0.005876290242,-0.0001734327883,0.004650428193
5590,5.59,0.03395078806,0.04441439265,-0.005675562583,0.005638113494,-0.0006185068223,0.004393167278
5595,5.595,-0.02388765801,0.04467624021,-0.006622600949,0.005382787756,0.00128292005,0.004391656546
5600,5.6,-0.06318842029,0.04305572437,0.003902670603,0.005220210863,-0.007133616714,0.004527675334
5605,5.605,0.04424613477,0.04026663134,-0.0009452777786,0.005216152829,-0.0103195772,0.004649330025
5610,5.61,-0.02237277425,0.03723149233,0.01128326777,0.005362842206,-0.007679956379,0.00464929161
5615,5.615,-0.04070534589,0.03479287973,-0.003013254051,0.005578640793,-0.000137667801,0.004509154899
5620,5.62,0.0373885613,0.03347762962,-0.01021766352,0.005741428949,0.003973910622,0.004288839002
5625,5.625,0.09094675021,0.03343209786,0.01430566014,0.005742546588,-0.008065149843,0.004082289275
5630,5.63,-0.001660035327,0.03445991298,0.005590310567,0.005541763406,-0.0001236250335,0.0039756551
5635,5.635,-0.04517431281,0.03601662504,0.009026872667,0.005195854177,-0.001681425345,0.004021016865
5640,5.64,0.02474340426,0.0372159029,-0.002369177587,0.004841016441,-0.0007100588025,0.004228043625
5645,5.645,-0.03685521113,0.0370697865,-0.003310170052,0.004632922276,-0.008154064193,0.00457600906
5650,5.65,0.06256961153,0.03495888486,0.002792799858,0.004670388223,-0.001295863481,0.00503610268
5655,5.655,0.043193725,0.03102758195,-0.006069662238,0.004946749201,0.007045244403,0.005584308684
5660,5.66,0.01078928262,0.02618426259,0.005379019874,0.005358909735,-0.002107654476,0.006196947113
5665,5.665,0.007157851138,0.02169213901,0.005295560047,0.005763963946,-0.01337614345,0.006835418401
5670,5.67,0.0184624848,0.01862854155,-0.006294524131,0.006044436008,0.006940930094,0.007429682576
5675,5.675,0.02149086087,0.01752057186,0.002290576957,0.006144707593,-0.0008455276667,0.007875866184
5680,5.68,-0.01891011488,0.0182805186,0.001864044163,0.006064451363,-0.01754269892,0.008060427962
5685,5.685,-0.01347181766,0.02036433201,0.003321189556,0.005830995117,-0.01055039794,0.007910934442
5690,5.69,0.00441183787,0.02301511935,-0.002144248793,0.00548399543,-0.01014659617,0.007446125454
5695,5.695,-0.01207811298,0.0254545971,-0.00830036439,0.005081165893,0.008939756505,0.006784204724
5700,5.7,0.01651686944,0.02696681022,0.003913775943,0.004705622786,0.00424447719,0.006097890274
5705,5.705,0.05694134642,0.02698433629,0.002437839408,0.004449080661,-0.004097588804,0.00553968668
5710,5.71,-0.04394901971,0.0252637557,0.004465986259,0.00437272812,-0.001643422329,0.005177659639
5715,5.715,-0.002910617266,0.02202518151,-0.002192358821,0.004478833009,-0.006311045358,0.004977796664
5720,5.72,-0.0093279529,0.01788541282,-0.01065940584,0.004717084526,-0.005129850461,0.004838980717
5725,5.725,-0.003433187693,0.0136640426,-0.009234717874,0.005016783089,-0.01073266317,0.004656958673
5730,5.73,0.001302782938,0.01025239198,0.0003403928444,0.005313330331,0.001111503445,0.004382596666
5735,5.735,0.01420085493,0.00856159224,-0.01027250442,0.005554473638,0.0005372597038,0.004041729079
5740,5.74,0.009166315002,0.009426527502,0.004891937801,0.005696566363,0.0006604783441,0.003709589853
5745,5.745,-0.01188833646,0.0133903788,0.009320640218,0.005700343589,-0.002138478446,0.003465716769
5750,5.75,-0.01725311416,0.02042150141,-0.007547361252,0.005531915716,0.0005913428861,0.003357129605
5755,5.755,-0.01936015166,0.02970778176,0.006549362026,0.005172289598,0.001122372304,0.003386169712
5760,5.76,0.03492831596,0.03966658089,-0.004813924353,0.004631152698,-0.002053264717,0.003527248967
5765,5.765,-0.1240034048,0.04825276455,-0.002858587348,0.003959285607,-0.001508707164,0.003762917256
5770,5.77,0.01206087097,0.05356717527,-0.001726567211,0.003254328713,-0.001185608912,0.004112003686
5775,5.775,0.1100269403,0.05460897889,-0.004147339612,0.002657034954,-0.001164026051,0.004626042347
5780,5.78,-0.02831314761,0.05188145684,-0.008584413385,0.002340346698,-0.0001236163332,0.00535376007
5785,5.785,0.02135931674,0.04746945749,0.002785848148,0.002489156668,0.0007649904126,0.006291892734
5790,5.79,0.02169871772,0.04426360401,-0.0009631319287,0.00326239748,-0.01134610339,0.00734847297
5795,5.795,-0.08503731942,0.04463746514,0.0005975861858,0.004732528071,-0.002902960632,0.008343780854
5800,5.8,0.02167094275,0.04934417412,-0.005319956723,0.006810425189,0.01367271317,0.009062449665
5805,5.805,0.03745346759,0.05716509784,0.005401302319,0.009190010126,-0.003488875777,0.009335584557
5810,5.81,-0.05091810903,0.06541994005,0.01335291694,0.0113721242,-0.01155845975,0.009112476343
5815,5.815,-0.1621871776,0.07111534562,-0.01445161792,0.01280308802,0.009040591675,0.008492637301
5820,5.82,-0.02236085375,0.07222728213,-0.01554017628,0.01309143213,-0.0143292102,0.007706365431
5825,5.825,0.04247562006,0.06850362561,-0.01772085199,0.01219298508,0.003459452293,0.007052369041
5830,5.83,-0.2019554089,0.06144339365,0.001240955469,0.01043808412,-0.01626342368,0.006827018211
5835,5.835,-0.02359399203,0.05365428427,-0.007935486468,0.008386542075,0.001885589102,0.007265457663
5840,5.84,0.08481149653,0.04798922733,-0.01049414187,0.006612225987,-0.005651812946,0.008489731135
5845,5.845,-0.06469889767,0.04675630169,0.003525828004,0.005516392925,-0.0002889299238,0.0104663555
5850,5.85,-0.0270413031,0.05118486957,-0.003311222068,0.005226705633,0.01359799471,0.01300025691
5855,5.855,0.07684706251,0.06108532446,0.0128888703,0.005596754192,-0.02315844265,0.01578021893
5860,5.86,-0.009612378409,0.07475117007,-0.004198314603,0.006291511215,0.0236214283,0.0184458985
5865,5.865,0.07892521604,0.08939677661,0.01145380172,0.006922115098,0.007932061399,0.0206419718
5870,5.87,0.07137775646,0.102180741,-0.01867146103,0.007184638351,-0.02730072825,0.02206705433
5875,5.875,0.1365262825,0.1113040625,0.01863843163,0.006963130044,-0.02118378457,0.02254380887
5880,5.88,-0.07117503707,0.1164067166,-0.007774903068,0.006357297385,0.04539252855,0.02209600039
5885,5.885,-0.05610337911,0.1180551058,0.009090551174,0.005619327876,-0.01135483494,0.02097707551
5890,5.89,0.08701257565,0.1168694806,0.003729248695,0.005034530454,-0.02136683926,0.01958676547
5895,5.895,-0.2518011103,0.1130451353,0.003055461491,0.00479999031,-0.0006359294731,0.01827632727
5900,5.9,0.002396629262,0.1065975704,-0.003595258437,0.004946852312,-0.03267068893,0.01719045677
5905,5.905,0.04710016346,0.09783043672,-0.0005000552206,0.005337540551,-0.01766464593,0.01627749627
5910,5.91,-0.002777904814,0.08735195343,0.01136170613,0.005741354576,0.04755700914,0.01543425227
5915,5.915,0.115989418,0.07585910577,-0.01375579168,0.00595522701,-0.00933030534,0.01465788729
5920,5.92,0.01522255107,0.06414348023,-0.0002599112607,0.00590144416,0.01547930176,0.01408753428
5925,5.925,0.08141644891,0.05321869258,0.002702051148,0.005643450878,0.0002480824503,0.01390284081
5930,5.93,-0.06319818951,0.04443370225,0.00131625965,0.00533002867,-0.001198361012,0.01419022094
5935,5.935,0.004723634387,0.03947867874,-0.004860656938,0.005124419836,0.006787039837,0.01490016882
5940,5.94,0.05271613664,0.04003693931,0.008653111459,0.005151093371,0.01962665239,0.01591495444
5945,5.945,0.01689435964,0.04708446675,0.0002487758562,0.005457463562,-0.008968945303,0.01714054912
5950,5.95,0.007952943513,0.06023042015,-0.005340000298,0.005991521803,0.001392498081,0.01852886648
5955,5.955,0.1090498869,0.07745754686,0.000323642606,0.00661271778,0.01091907452,0.02001034123
5960,5.96,-0.09038644514,0.09536420463,-0.01365250723,0.007142549132,0.01924251295,0.0214006272
5965,5.965,0.07472986469,0.109838032,0.001372428125,0.007428987795,-0.02636700959,0.02239285525
5970,5.97,0.1271930627,0.1170399604,0.01473568447,0.0073923442,0.02667048649,0.0226840985
5975,5.975,-0.1582646668,0.1145108626,0.002847050531,0.007045314472,-0.04398625304,0.02214147895
5980,5.98,0.3811195987,0.1020475427,0.005774195881,0.006484633311,0.01601933974,0.02088125744
5985,5.985,-0.08300121812,0.08195615162,-0.0007979748074,0.005846506359,0.03882418259,0.01922218447
5990,5.99,-0.02910312436,0.05839407181,-0.004672538362,0.005253925314,-0.03551396717,0.01756311175
5995,5.995,0.00294914405,0.03593597818,0.006982159047,0.004794474994,0.02941361841,0.0162507762
6000,6,0.03366847377,0.01812278843,0.003718001174,0.004529012061,0.001764053386,0.01545334646
6005,6.005,0.01078556062,0.006682888923,0.01088665387,0.00450884433,-0.02608845753,0.01508497076
6010,6.01,-0.004032491153,0.001545740891,-0.005140668042,0.004786442002,-0.01108051014,0.01485639299
6015,6.015,-0.001061972403,0.001357984223,-0.003675220866,0.005408239476,0.0228039197,0.01444657776
6020,6.02,-0.003741376386,0.004157226576,0.003507386838,0.00638656346,-0.01204149102,0.01369497771
6025,6.025,-0.004196355593,0.007970028354,-0.003570151585,0.00766876609,-0.0001490506452,0.01269956069
6030,6.03,-0.01022598806,0.01122690607,0.01975720169,0.009128847538,0.02770565434,0.01175733302
6035,6.035,-0.02657194557,0.01299174745,-0.007996455016,0.0105905014,0.001861857108,0.01119850143
6040,6.04,-0.008220100761,0.01302735987,-0.00964636539,0.01185796633,-0.0004223720797,0.01122198
6045,6.045,-0.002106191486,0.01168780816,0.01283196328,0.01272883918,0.0142680198,0.01179596901
6050,6.05,0.0200648243,0.009670823297,-0.004394564152,0.01301658978,-0.01191936331,0.01266001034
6055,6.055,-0.006193836709,0.007742544749,0.01648491339,0.0126272419,0.0005047294575,0.01342921071
6060,6.06,0.006808477902,0.006518839572,0.02960123777,0.01166609988,0.01721649259,0.01374250672
6065,6.065,-0.006314672431,0.006314132399,0.01308199844,0.01048667294,-0.02001402153,0.01337957454
6070,6.07,0.006945698642,0.007074470116,0.004353849674,0.009623287414,0.00300052912,0.01230721802
6075,6.075,0.0003772308258,0.008421788946,-0.004675622704,0.009639229529,0.02132684686,0.01067199063
6080,6.08,-0.007385433336,0.009801854221,-0.01115011731,0.01099208019,-0.008570657801,0.008755265673
6085,6.085,-0.0413743366,0.0106945417,0.02051452666,0.01400704747,-0.000165739997,0.006890157904
