"# Raw surface EMG excerpt, Santuz et al. 2021, CC BY 4.0"
# source,https://doi.org/10.5281/zenodo.5171823
# trial,ID0001_M_YOUNG_TW_01
# sampling_rate_hz,1000
# units,millivolt
# touchdown_s,0.6990;1.7410;2.7830;3.8240;4.8830;5.9240;6.9580;7.9990
# regenerate,python scripts/extract_emg_demo.py
time_s,ta_mv,gm_mv,rf_mv
0.00000,-0.008280,-0.168072,0.005643
0.00100,-0.000671,-0.123550,0.019728
0.00200,-0.018156,-0.068829,0.003700
0.00300,-0.014918,0.095496,0.007424
0.00400,0.014062,0.203967,0.005481
0.00500,0.030899,0.042394,0.004024
0.00600,0.032842,-0.167910,-0.007309
0.00700,0.006776,-0.171148,-0.003423
0.00800,-0.001642,0.029766,-0.008442
0.00900,0.010986,0.125609,0.011633
0.01000,0.048222,-0.096028,0.003377
0.01100,0.027175,-0.088904,0.003700
0.01200,0.017462,-0.087771,0.009853
0.01300,-0.020422,0.068783,0.011310
0.01400,-0.038393,0.206557,-0.004556
0.01500,-0.030460,-0.000833,0.003700
0.01600,-0.021232,-0.031755,0.002891
0.01700,0.012443,0.003215,0.008072
0.01800,0.000624,0.052269,-0.005528
0.01900,0.002243,-0.028841,-0.000995
0.02000,-0.022365,-0.197537,0.001272
0.02100,-0.019127,-0.184585,0.001434
0.02200,0.003215,-0.183776,-0.003423
0.02300,-0.003423,-0.160463,-0.011680
0.02400,-0.002614,-0.124684,-0.003747
0.02500,-0.005851,0.042232,0.005158
0.02600,0.006615,0.039318,0.003377
0.02700,-0.020422,-0.037098,0.004024
0.02800,-0.040983,0.424956,0.002729
0.02900,-0.003747,0.371854,0.003053
0.03000,0.021671,0.036404,0.007910
0.03100,0.023776,0.176606,0.005805
0.03200,0.025556,0.062145,0.006938
0.03300,0.016652,0.079954,0.011148
0.03400,-0.007794,0.177092,0.014871
0.03500,0.003539,0.181625,-0.000185
0.03600,-0.002775,0.059555,0.018109
0.03700,-0.000347,-0.100237,-0.003099
0.03800,-0.000833,-0.249992,-0.004071
0.03900,-0.003261,-0.484580,0.008557
0.04000,0.021995,-0.339683,0.008395
0.04100,0.008072,-0.170824,0.002243
0.04200,0.017785,-0.129702,-0.008766
0.04300,-0.001318,0.041260,-0.002128
0.04400,-0.017184,0.117676,0.002081
0.04500,-0.023498,0.071211,-0.001804
0.04600,-0.015727,0.089506,0.000624
0.04700,0.006291,-0.109465,-0.001804
0.04800,-0.007794,-0.193814,-0.009413
0.04900,-0.016213,-0.163215,0.003862
0.05000,-0.001966,-0.155606,0.013252
0.05100,0.004996,0.014709,0.010500
0.05200,-0.004880,0.389986,-0.003099
0.05300,-0.020746,0.289610,-0.004718
0.05400,-0.007632,-0.108008,0.000463
0.05500,-0.014432,-0.040335,-0.000023
0.05600,-0.013137,0.019728,0.005967
0.05700,-0.009737,-0.230888,-0.000671
0.05800,-0.009575,-0.220365,-0.005690
0.05900,-0.002290,0.158798,0.005967
0.06000,-0.014594,0.434831,0.005967
0.06100,-0.000995,0.233756,0.001110
0.06200,0.002081,0.053888,0.001758
0.06300,-0.002775,0.056641,-0.014108
0.06400,-0.005204,-0.163701,0.001758
0.06500,-0.010546,0.169968,-0.003585
0.06600,0.002243,0.264192,-0.005204
0.06700,0.009691,0.130142,-0.004880
0.06800,0.032194,0.167702,0.006129
0.06900,0.009691,0.076392,-0.006661
0.07000,0.012605,0.149407,0.008881
0.07100,0.011795,0.062469,0.002567
0.07200,-0.022041,-0.024146,-0.015727
0.07300,-0.000347,-0.119665,-0.004071
0.07400,-0.022527,-0.102180,0.004186
0.07500,-0.021555,-0.029326,0.002081
0.07600,-0.017670,-0.119341,0.000463
0.07700,0.004672,-0.200289,-0.006013
0.07800,-0.003585,-0.215184,-0.003423
0.07900,0.004348,-0.121446,-0.009089
0.08000,0.005319,0.033975,-0.027708
0.08100,0.005158,-0.023174,-0.042602
0.08200,-0.003261,-0.016537,-0.032403
0.08300,-0.007309,0.182273,-0.021070
0.08400,0.004834,0.153941,-0.002452
0.08500,-0.014108,0.026204,0.011957
0.08600,-0.002614,0.063278,0.016814
0.08700,-0.011518,-0.158682,0.016005
0.08800,-0.001804,-0.145568,0.008557
0.08900,0.010824,-0.045354,0.021671
0.09000,0.007586,-0.230888,0.027014
0.09100,0.012443,-0.396185,-0.010061
0.09200,-0.018803,-0.530559,0.022642
0.09300,-0.005851,0.133865,0.044984
0.09400,0.014386,0.463163,0.030575
0.09500,0.028633,0.250755,0.020214
0.09600,0.016814,0.153293,-0.010708
0.09700,-0.013946,-0.082267,-0.012004
0.09800,-0.023336,-0.103961,0.004672
0.09900,0.002243,-0.067210,0.004348
0.10000,0.000948,-0.098618,0.005319
0.10100,-0.018803,0.078659,0.001758
0.10200,-0.041469,0.070564,-0.020260
0.10300,-0.040659,-0.003099,-0.007147
0.10400,0.006291,-0.045516,0.006129
0.10500,0.026528,-0.028031,0.015195
0.10600,0.006453,0.047736,0.024261
0.10700,0.013414,0.061012,0.017138
0.10800,-0.001318,0.176120,0.018271
0.10900,0.008395,0.133380,0.000786
0.11000,0.004186,0.052593,-0.005366
0.11100,-0.005042,0.015843,-0.006985
0.11200,-0.040174,-0.099913,-0.012327
0.11300,-0.031431,-0.207413,-0.023336
0.11400,-0.040497,-0.179405,-0.007470
0.11500,-0.044383,-0.067048,-0.005528
0.11600,0.011633,0.001434,-0.010870
0.11700,0.000463,0.022642,-0.001318
0.11800,0.000301,0.020700,-0.006499
0.11900,-0.005204,0.063440,0.005481
0.12000,0.005805,0.161550,-0.006823
0.12100,-0.013784,0.047574,0.000301
0.12200,-0.003423,-0.069315,0.006453
0.12300,-0.013299,-0.036450,0.000301
0.12400,0.010176,0.023614,0.001596
0.12500,0.039156,0.052755,-0.000185
0.12600,0.050651,0.067002,0.001596
0.12700,0.018919,0.100838,-0.008280
0.12800,-0.034022,-0.016860,-0.001480
0.12900,-0.015241,0.001272,-0.011194
0.13000,-0.030784,-0.048592,-0.002452
0.13100,0.012605,-0.037098,-0.024308
0.13200,0.041099,-0.009899,-0.063001
0.13300,0.081411,-0.045840,-0.059277
0.13400,0.037051,-0.011032,-0.035317
0.13500,0.021671,-0.025765,-0.034831
0.13600,-0.001804,0.050489,-0.020098
0.13700,-0.049725,0.023938,-0.001642
0.13800,-0.072391,0.036565,0.011633
0.13900,-0.064944,0.060364,0.026528
0.14000,-0.003261,0.035756,0.045146
0.14100,0.008719,0.012443,0.026528
0.14200,0.014548,-0.009251,0.019890
0.14300,-0.009737,-0.060087,0.011633
0.14400,-0.008118,-0.096028,0.031223
0.14500,-0.044059,-0.032403,0.026528
0.14600,-0.010385,-0.022689,0.019728
0.14700,0.004834,-0.053611,0.020052
0.14800,0.000301,-0.026412,0.002405
0.14900,0.012281,-0.020098,0.001272
0.15000,0.002405,-0.019936,0.016976
0.15100,0.007910,-0.002128,0.016652
0.15200,-0.007632,0.015195,-0.002290
0.15300,0.003377,0.013738,0.019404
0.15400,-0.004233,-0.012489,0.000786
0.15500,0.008719,0.000139,-0.002128
0.15600,0.014062,0.044822,0.008719
0.15700,0.033651,0.055345,-0.004233
0.15800,0.035756,-0.003099,0.002081
0.15900,0.005967,-0.094247,0.009691
0.16000,-0.012651,-0.086962,0.000624
0.16100,-0.023336,-0.017832,0.000301
0.16200,-0.008280,-0.024955,-0.004880
0.16300,0.001596,-0.019775,-0.012651
0.16400,0.005643,-0.017994,0.004348
0.16500,0.007262,0.010014,0.007100
0.16600,0.035108,0.033004,-0.001966
0.16700,0.035918,0.017785,-0.005690
0.16800,0.021185,0.025395,-0.007309
0.16900,0.005319,-0.005204,-0.018479
0.17000,-0.000995,-0.069963,-0.014756
0.17100,-0.013461,-0.047297,-0.003747
0.17200,-0.001156,-0.018318,-0.012489
0.17300,0.008557,-0.016375,-0.010385
0.17400,-0.015403,0.033813,-0.014270
0.17500,-0.030945,0.080278,0.003053
0.17600,-0.014108,0.022642,-0.001642
0.17700,-0.002290,-0.017184,-0.019289
0.17800,0.000948,-0.024146,-0.031269
0.17900,0.007100,-0.001642,-0.032403
0.18000,0.011957,0.017947,-0.034183
0.18100,0.017947,-0.017346,-0.004880
0.18200,0.015357,-0.016051,-0.000023
0.18300,-0.003099,-0.001804,0.005643
0.18400,0.006776,0.004672,0.009367
0.18500,0.002081,0.018109,0.034461
0.18600,0.008234,0.040289,0.009043
0.18700,0.000786,0.042556,0.019404
0.18800,0.010014,0.036404,0.023776
0.18900,0.025880,-0.005042,0.014709
0.19000,-0.004233,-0.014270,0.008234
0.19100,-0.001480,0.008719,0.023938
0.19200,-0.007147,-0.006661,0.012767
0.19300,-0.017346,0.013576,-0.004071
0.19400,-0.010385,0.007748,-0.000185
0.19500,-0.009899,0.018595,-0.016213
0.19600,0.001110,0.011795,-0.025927
0.19700,0.009691,0.002891,-0.016860
0.19800,-0.007309,0.021509,-0.023984
0.19900,-0.002614,0.001596,-0.021232
0.20000,0.033166,-0.017184,-0.016213
0.20100,0.019728,-0.029165,-0.012813
0.20200,0.008395,-0.011842,-0.045840
0.20300,0.005158,-0.002614,-0.024793
0.20400,-0.005851,0.012767,-0.006013
0.20500,0.011633,-0.001804,0.005967
0.20600,0.011310,-0.005042,0.032518
0.20700,-0.007147,-0.000509,0.039156
0.20800,0.003377,-0.012975,0.068783
0.20900,-0.002128,-0.001966,0.073316
0.21000,-0.008118,-0.008927,0.015843
0.21100,-0.007794,0.001110,-0.039850
0.21200,-0.005690,0.003862,-0.060573
0.21300,0.007586,-0.000023,-0.068505
0.21400,-0.005851,0.001596,-0.054906
0.21500,-0.013946,-0.002128,-0.016051
0.21600,-0.004233,0.015843,0.005481
0.21700,-0.012975,0.007586,0.006453
0.21800,-0.012651,0.000948,0.013414
0.21900,-0.003423,-0.006985,-0.007147
0.22000,0.003053,-0.000671,-0.005528
0.22100,0.006129,-0.004556,0.017138
0.22200,-0.008927,-0.000185,0.018595
0.22300,0.001758,0.002243,0.031223
0.22400,0.008395,-0.003261,0.022480
0.22500,0.000786,-0.014270,0.014224
0.22600,0.011148,-0.008280,-0.003261
0.22700,-0.001156,-0.006013,0.006453
0.22800,-0.006661,-0.000023,-0.001966
0.22900,-0.006175,-0.001318,-0.021879
0.23000,-0.001318,-0.008604,-0.009575
0.23100,-0.005528,-0.000023,-0.001318
0.23200,-0.001642,-0.002614,0.005643
0.23300,0.007748,-0.001966,0.007586
0.23400,-0.006337,0.004186,0.020376
0.23500,0.007910,0.014224,0.009529
0.23600,-0.008118,0.003215,0.006938
0.23700,-0.005690,0.000301,-0.018641
0.23800,0.000139,-0.002290,-0.022203
0.23900,-0.000509,0.009529,-0.020098
0.24000,-0.001480,0.010014,0.016328
0.24100,-0.000347,0.013090,0.052108
0.24200,0.000948,0.007424,0.036080
0.24300,-0.009899,-0.002614,0.046927
0.24400,-0.009413,-0.006823,0.007910
0.24500,0.003215,-0.000509,-0.005042
0.24600,0.009367,-0.002614,-0.038393
0.24700,0.002729,0.003539,-0.055392
0.24800,0.006129,-0.001642,-0.032079
0.24900,-0.001156,0.002729,-0.007470
0.25000,0.004348,0.009853,0.014062
0.25100,-0.005528,0.002405,0.076878
0.25200,0.010014,-0.006013,0.146331
0.25300,0.005158,-0.006175,0.201700
0.25400,-0.009413,-0.001318,0.158150
0.25500,-0.000995,-0.002452,0.025071
0.25600,-0.007147,-0.008442,-0.039040
0.25700,-0.004556,-0.004880,-0.106713
0.25800,-0.001318,-0.008280,-0.134074
0.25900,0.006129,0.003215,-0.110275
0.26000,0.006776,0.007910,-0.070286
0.26100,0.008719,0.003862,-0.072391
0.26200,0.011633,-0.007147,-0.097485
0.26300,0.009367,-0.001966,-0.099752
0.26400,0.011471,-0.002290,-0.103313
0.26500,0.006129,-0.008442,-0.134721
0.26600,0.013738,-0.004718,-0.120474
0.26700,0.011148,0.004024,-0.168720
0.26800,0.010338,-0.002290,-0.122903
0.26900,0.008234,0.000139,-0.034345
0.27000,-0.012165,0.001596,0.055184
0.27100,0.005319,0.010986,0.067812
0.27200,0.014709,0.014548,0.072992
0.27300,-0.015403,0.008395,0.010986
0.27400,-0.016699,0.009853,-0.069801
0.27500,-0.045354,0.002405,-0.027869
0.27600,-0.029165,-0.007470,0.043365
0.27700,0.026852,-0.006337,0.104886
0.27800,0.012443,0.008557,0.188910
0.27900,-0.023498,0.007424,0.196843
0.28000,0.009043,0.004024,0.162197
0.28100,0.090153,0.009367,0.120428
0.28200,0.126742,0.012443,0.107638
0.28300,0.134027,0.016976,0.077525
0.28400,0.004348,0.015357,0.043689
0.28500,-0.023984,0.015843,-0.010223
0.28600,0.085296,0.009853,-0.023174
0.28700,-0.046002,0.009691,-0.040821
0.28800,-0.127274,0.002243,-0.033860
0.28900,-0.097323,0.004186,-0.027708
0.29000,-0.029488,0.003215,-0.016375
0.29100,0.004672,-0.006013,0.007910
0.29200,-0.034022,-0.012327,0.006615
0.29300,0.062631,-0.011518,-0.000671
0.29400,0.047413,0.001434,0.005481
0.29500,0.122047,0.001272,0.004510
0.29600,0.049193,0.005481,-0.003423
0.29700,0.009691,0.004510,0.003539
0.29800,-0.001966,0.008072,-0.010708
0.29900,-0.030136,0.003053,-0.002937
0.30000,-0.091495,0.011471,-0.012813
0.30100,-0.130674,0.010014,-0.007794
0.30200,-0.107361,-0.007147,-0.002937
0.30300,-0.148159,0.007262,-0.011032
0.30400,-0.018965,0.002243,-0.005204
0.30500,-0.023984,0.003215,-0.007632
0.30600,0.043203,0.011310,-0.003909
0.30700,-0.053449,-0.002937,-0.007309
0.30800,-0.126303,-0.003423,-0.011194
0.30900,-0.008604,-0.011032,-0.006013
0.31000,-0.004394,-0.019451,-0.004556
0.31100,0.035756,-0.011194,0.006453
0.31200,0.044984,-0.007147,-0.004233
0.31300,-0.008118,-0.004718,-0.007309
0.31400,0.066840,-0.001966,-0.001480
0.31500,0.068945,-0.005528,0.000624
0.31600,-0.066401,-0.006661,-0.008766
0.31700,-0.033050,-0.006337,-0.007956
0.31800,-0.085505,-0.007470,-0.000671
0.31900,-0.093923,-0.011842,-0.007956
0.32000,-0.037259,-0.011356,-0.007794
0.32100,-0.015403,-0.009089,0.001596
0.32200,-0.040659,-0.004556,-0.001966
0.32300,-0.030784,0.009043,-0.005528
0.32400,0.041422,0.012119,-0.016375
0.32500,0.075259,0.013900,-0.011680
0.32600,0.135970,0.011471,-0.005366
0.32700,0.072830,0.021995,-0.012975
0.32800,0.033651,0.019243,-0.009251
0.32900,0.050327,0.001272,-0.012004
0.33000,-0.074334,0.001758,0.007100
0.33100,0.009205,0.001434,0.064574
0.33200,0.074773,-0.001966,0.047251
0.33300,0.045632,-0.011356,0.005967
0.33400,0.035108,-0.003909,-0.012813
0.33500,0.002729,-0.000347,-0.028679
0.33600,-0.008766,0.000139,-0.043250
0.33700,0.011633,-0.005528,-0.035155
0.33800,0.026690,-0.006337,-0.044869
0.33900,-0.039040,-0.002452,-0.040335
0.34000,-0.055230,0.001272,-0.032726
0.34100,-0.037259,-0.001318,-0.021555
0.34200,-0.129379,0.004672,-0.012327
0.34300,-0.197052,0.011310,0.004024
0.34400,0.036404,0.012119,-0.000671
0.34500,0.197005,0.010014,-0.003099
0.34600,0.127390,0.010176,0.002567
0.34700,0.030575,0.003539,-0.007147
0.34800,-0.028355,0.006615,-0.002290
0.34900,-0.034345,0.013090,-0.002452
0.35000,-0.006985,0.009691,0.005481
0.35100,0.021023,0.010662,0.009691
0.35200,0.053403,0.011795,0.001920
0.35300,0.019890,0.012281,0.000624
0.35400,-0.024308,0.014062,-0.001318
0.35500,-0.011518,0.009529,-0.009899
0.35600,0.000624,0.011957,0.003700
0.35700,-0.005042,0.015843,0.002891
0.35800,-0.008280,0.018271,-0.004394
0.35900,0.011471,0.016166,-0.002452
0.36000,-0.030460,0.013738,0.001434
0.36100,-0.114322,0.003215,-0.005204
0.36200,-0.068182,0.001110,-0.011842
0.36300,0.007424,0.010338,-0.017022
0.36400,-0.038069,0.015681,-0.003909
0.36500,-0.015889,0.012119,-0.000833
0.36600,-0.015403,0.015357,0.002405
0.36700,-0.021555,0.015357,0.002243
0.36800,-0.000185,0.014548,-0.005851
0.36900,-0.015565,0.008072,0.004024
0.37000,-0.000833,0.016328,-0.000833
0.37100,-0.024308,0.015357,0.009853
0.37200,-0.026898,0.005967,-0.004556
0.37300,-0.027546,0.007910,-0.009251
0.37400,-0.020098,0.005481,-0.003585
0.37500,-0.022527,0.014386,0.004024
0.37600,-0.015403,0.011957,0.005158
0.37700,0.025718,-0.004394,-0.001156
0.37800,0.060850,0.013252,-0.007470
0.37900,0.061012,0.005158,-0.008766
0.38000,0.076392,0.021347,0.000463
0.38100,0.055669,0.010662,0.001920
0.38200,0.095658,0.004996,-0.004071
0.38300,0.084487,0.009367,0.009205
0.38400,0.026852,0.007100,-0.004233
0.38500,0.035594,0.005805,0.015033
0.38600,-0.052316,-0.005366,0.004672
0.38700,-0.118370,-0.006823,0.006615
0.38800,0.042879,-0.002290,0.010662
0.38900,0.062145,-0.003585,0.017462
0.39000,-0.045030,-0.008927,0.020862
0.39100,-0.057658,-0.008766,0.021185
0.39200,-0.105418,-0.002937,0.009853
0.39300,-0.010708,-0.004880,0.019404
0.39400,-0.010223,0.007100,0.007910
0.39500,-0.024631,0.000139,0.020376
0.39600,0.011957,0.000786,0.007100
0.39700,-0.013299,0.006291,0.014224
0.39800,0.016652,-0.005204,0.007424
0.39900,0.037699,-0.001966,0.006291
0.40000,0.020376,-0.003909,0.019728
0.40100,-0.074172,-0.004718,0.001110
0.40200,-0.112541,-0.007470,0.005481
0.40300,-0.063001,-0.009413,0.002567
0.40400,-0.036612,0.002243,0.002567
0.40500,-0.090362,0.005967,0.015033
0.40600,0.025395,-0.001318,0.014386
0.40700,0.122209,0.008719,0.000786
0.40800,0.035594,0.007586,0.009691
0.40900,-0.011680,0.007424,0.010338
0.41000,-0.162568,0.000624,0.009043
0.41100,-0.047783,-0.000995,0.006291
0.41200,0.075259,-0.005366,0.006291
0.41300,0.053565,-0.010223,0.010014
0.41400,0.120590,-0.007794,-0.000185
0.41500,0.048870,-0.003423,0.011471
0.41600,0.008557,-0.008442,0.003539
0.41700,-0.060573,-0.006499,0.007100
0.41800,-0.012651,-0.012165,-0.008766
0.41900,0.012767,-0.013299,0.007100
0.42000,-0.008766,-0.008604,0.009691
0.42100,-0.008442,-0.011194,0.004348
0.42200,-0.056849,-0.010385,0.005967
0.42300,-0.020584,-0.006013,0.009043
0.42400,-0.008927,-0.010870,0.014709
0.42500,0.005158,-0.009737,0.016166
0.42600,0.015033,-0.013137,-0.001318
0.42700,-0.012489,-0.015403,0.018757
0.42800,-0.008927,-0.013137,0.005158
0.42900,0.005481,-0.009251,0.002243
0.43000,-0.003423,-0.004071,0.007910
0.43100,-0.015889,-0.012975,0.006615
0.43200,-0.002290,-0.014108,0.003700
0.43300,-0.009737,-0.010061,0.002081
0.43400,-0.000995,-0.010061,0.011148
0.43500,0.006453,-0.015080,0.012443
0.43600,0.005319,-0.012327,0.007262
0.43700,-0.015241,-0.013784,0.002405
0.43800,-0.013623,-0.002937,0.010014
0.43900,-0.017994,-0.007470,0.009853
0.44000,-0.011842,-0.017022,0.004996
0.44100,-0.002128,-0.011356,0.002243
0.44200,-0.003261,-0.008927,0.003700
0.44300,-0.001156,-0.016699,0.004024
0.44400,-0.005042,-0.012327,0.003215
0.44500,-0.005366,-0.007956,0.001596
0.44600,-0.004880,-0.015241,0.005158
0.44700,-0.004394,-0.005851,0.006453
0.44800,-0.004556,-0.014594,0.005319
0.44900,0.002243,-0.019127,0.015357
0.45000,-0.008118,-0.012327,0.002567
0.45100,-0.006823,-0.016860,0.001758
0.45200,0.001434,-0.015565,0.003700
0.45300,0.001596,-0.008766,0.011310
0.45400,0.013252,-0.019775,0.000139
0.45500,0.006453,-0.010870,0.004672
0.45600,0.000139,-0.008604,0.009043
0.45700,0.007262,-0.008442,0.004996
0.45800,-0.013784,-0.014108,0.020214
0.45900,-0.022527,-0.014108,-0.007632
0.46000,-0.008442,-0.014432,0.022804
0.46100,-0.011842,-0.019613,0.000948
0.46200,-0.004394,0.000139,0.009367
0.46300,-0.008118,-0.004556,0.004024
0.46400,-0.003423,-0.013299,-0.013946
0.46500,-0.000347,-0.011032,-0.001966
0.46600,-0.001642,-0.020098,-0.012004
0.46700,0.012119,-0.009089,0.003215
0.46800,-0.008280,-0.012651,0.007100
0.46900,-0.007956,-0.013784,-0.005690
0.47000,-0.009413,-0.006499,0.006776
0.47100,-0.004556,-0.011194,0.000948
0.47200,-0.004718,-0.011032,-0.003423
0.47300,0.005481,0.000948,-0.003585
0.47400,-0.001318,-0.007309,-0.000833
0.47500,0.000786,-0.020098,0.024423
0.47600,0.006291,-0.020746,-0.002452
0.47700,-0.002290,-0.004233,0.002891
0.47800,-0.014756,-0.007794,0.005481
0.47900,-0.036774,-0.012813,0.014548
0.48000,-0.021717,-0.016860,0.003377
0.48100,0.004186,-0.014108,0.002567
0.48200,-0.007470,-0.003909,0.022319
0.48300,-0.011518,-0.011518,0.005481
0.48400,-0.008118,-0.007309,-0.001156
0.48500,0.000139,0.004186,-0.005690
0.48600,0.003539,0.006291,0.005967
0.48700,0.009205,0.009529,0.005319
0.48800,0.002081,-0.003261,-0.000671
0.48900,0.004834,0.006776,-0.004556
0.49000,-0.003099,-0.001966,0.005481
0.49100,-0.014756,-0.004556,0.009205
0.49200,0.002405,0.003215,-0.005204
0.49300,-0.005204,-0.004071,0.001272
0.49400,-0.008280,0.008557,-0.016375
0.49500,-0.004880,-0.003261,0.003053
0.49600,-0.006661,-0.003909,-0.003261
0.49700,-0.005690,0.002243,-0.003909
0.49800,0.007262,0.008234,-0.006337
0.49900,0.003539,-0.002452,-0.003747
0.50000,0.003700,-0.002775,-0.005528
0.50100,-0.008604,-0.009899,0.001596
0.50200,0.000624,-0.008442,0.000948
0.50300,-0.000347,0.009205,-0.001318
0.50400,-0.008766,-0.007632,-0.006175
0.50500,-0.006499,0.005319,-0.006499
0.50600,-0.003747,-0.013784,0.000139
0.50700,0.002567,-0.011356,-0.003585
0.50800,-0.011356,0.004186,-0.005204
0.50900,0.004024,-0.005204,-0.006823
0.51000,0.002243,0.008719,0.001110
0.51100,0.010014,0.004996,0.007424
0.51200,0.000463,-0.002775,0.001596
0.51300,0.002405,-0.004233,-0.001966
0.51400,0.037213,-0.006661,-0.001642
0.51500,0.028794,0.003700,0.004348
0.51600,0.054050,-0.003909,-0.004880
0.51700,0.053241,-0.010061,-0.000995
0.51800,0.058098,-0.003747,-0.007147
0.51900,0.023776,-0.002937,-0.003261
0.52000,-0.024631,-0.004233,-0.008766
0.52100,0.016490,-0.002452,0.003862
0.52200,-0.023174,-0.000671,0.000948
0.52300,-0.113513,0.008234,0.000139
0.52400,-0.046488,0.000786,-0.006823
0.52500,0.046603,0.001434,0.006129
0.52600,-0.010546,0.000463,-0.005851
0.52700,-0.064944,0.004834,-0.005042
0.52800,-0.014108,-0.005851,0.001758
0.52900,-0.015241,-0.005042,0.009853
0.53000,-0.022041,0.004348,-0.003261
0.53100,-0.007794,0.001272,-0.004394
0.53200,0.002729,0.006776,-0.006985
0.53300,0.000301,0.002405,-0.008766
0.53400,-0.029488,-0.002937,-0.005528
0.53500,-0.031107,-0.000995,0.006453
0.53600,-0.091657,0.004672,0.002243
0.53700,-0.140226,0.004996,-0.006013
0.53800,-0.037421,-0.008766,-0.000671
0.53900,0.101162,0.000948,-0.017022
0.54000,0.166569,0.004024,0.007910
0.54100,0.177739,0.007910,-0.003747
0.54200,0.090963,0.007262,-0.004233
0.54300,0.000301,0.007262,-0.016537
0.54400,-0.102828,0.005481,-0.017832
0.54500,-0.094247,0.007424,-0.000671
0.54600,0.064897,0.001758,-0.001318
0.54700,0.023938,-0.000833,-0.007794
0.54800,-0.094895,-0.006823,-0.006499
0.54900,-0.044545,-0.004071,-0.003423
0.55000,0.016490,0.006776,-0.000023
0.55100,0.044984,-0.013946,-0.002775
0.55200,0.008557,-0.003909,-0.001156
0.55300,0.007586,-0.000509,0.000786
0.55400,0.039156,-0.007147,-0.006337
0.55500,0.050489,-0.009089,-0.003909
0.55600,0.030090,0.000948,-0.002452
0.55700,0.032842,-0.005204,-0.004233
0.55800,0.027823,0.006291,-0.007309
0.55900,-0.016051,0.000624,-0.005690
0.56000,-0.068182,-0.013299,-0.002290
0.56100,-0.035640,0.001272,-0.012004
0.56200,0.031709,0.014386,-0.010385
0.56300,-0.009575,0.016166,-0.003747
0.56400,-0.037907,0.004834,-0.012165
0.56500,-0.075629,0.004834,-0.007794
0.56600,-0.015241,0.001596,0.007910
0.56700,0.056479,0.007262,-0.002290
0.56800,0.014224,0.006776,-0.007470
0.56900,0.019890,0.002405,-0.013299
0.57000,-0.007147,-0.006175,-0.007632
0.57100,-0.034507,0.009853,-0.001480
0.57200,-0.019775,0.005481,-0.000995
0.57300,-0.024631,0.008557,-0.004556
0.57400,0.009529,0.005158,0.010662
0.57500,0.004510,-0.006985,0.000948
0.57600,0.004024,0.006453,0.002567
0.57700,0.035756,0.004510,-0.006499
0.57800,0.062307,0.000139,-0.019775
0.57900,0.057612,0.003539,-0.000833
0.58000,-0.069153,0.007586,-0.009413
0.58100,-0.071258,0.007424,0.003053
0.58200,0.085296,0.012119,-0.017184
0.58300,0.023776,0.008557,-0.012651
0.58400,0.029766,-0.001642,-0.009413
0.58500,0.059069,0.009529,-0.002937
0.58600,0.006129,0.006453,0.012281
0.58700,0.033489,0.002405,-0.007632
0.58800,0.017462,-0.013299,-0.006661
0.58900,-0.004233,-0.001966,-0.014108
0.59000,0.007586,-0.004718,0.003862
0.59100,0.059069,-0.002614,0.015681
0.59200,0.077363,-0.009737,-0.000833
0.59300,0.074611,-0.012327,0.004672
0.59400,0.071373,-0.001318,0.002243
0.59500,0.086592,-0.006337,0.004348
0.59600,0.012119,0.000301,-0.004394
0.59700,-0.008927,-0.012004,0.000624
0.59800,-0.034183,-0.011680,-0.008927
0.59900,-0.167263,0.000786,-0.003585
0.60000,-0.148321,-0.016375,-0.002775
0.60100,-0.040335,-0.014108,-0.005690
0.60200,0.009043,-0.028031,-0.007632
0.60300,-0.029003,-0.011680,-0.008280
0.60400,0.001110,-0.009251,-0.017508
0.60500,0.003700,-0.018641,-0.023984
0.60600,0.021509,-0.020098,-0.012489
0.60700,0.044660,-0.026736,-0.011842
0.60800,0.020700,-0.009089,-0.010061
0.60900,0.078335,-0.018641,-0.029003
0.61000,0.053403,-0.009737,-0.026898
0.61100,0.044498,-0.004394,-0.006013
0.61200,-0.049725,0.008881,0.007262
0.61300,-0.293218,0.004834,0.023776
0.61400,-0.100399,0.001920,0.029280
0.61500,0.027661,-0.006013,0.034137
0.61600,-0.058954,-0.019451,0.020700
0.61700,0.130142,-0.018479,0.004024
0.61800,0.023290,-0.035155,-0.018479
0.61900,-0.003261,-0.039850,-0.010870
0.62000,0.015519,-0.042602,-0.001156
0.62100,-0.031269,-0.039364,0.001758
0.62200,0.018919,0.000463,-0.003585
0.62300,0.007424,0.067164,-0.004233
0.62400,0.040937,0.021023,0.015033
0.62500,-0.023498,0.006291,0.012119
0.62600,-0.025765,0.025718,-0.020584
0.62700,-0.075143,-0.003261,-0.011356
0.62800,0.009367,0.012119,-0.016860
0.62900,0.031385,0.000463,-0.012975
0.63000,-0.041145,0.013900,0.005158
0.63100,0.016166,0.007748,0.009367
0.63200,0.053565,-0.003261,0.017947
0.63300,-0.061544,0.010500,-0.004071
0.63400,-0.085667,0.001758,-0.012489
0.63500,0.069916,-0.000833,-0.016375
0.63600,0.113628,-0.002937,-0.019775
0.63700,0.147465,-0.002614,-0.022203
0.63800,0.176444,-0.007470,-0.014594
0.63900,0.073478,-0.000995,0.012281
0.64000,0.014871,0.002243,0.011957
0.64100,0.078011,0.000139,0.003700
0.64200,0.143579,0.003215,-0.008927
0.64300,-0.003423,0.001434,-0.029650
0.64400,-0.172605,-0.013137,-0.026089
0.64500,-0.022365,0.005643,-0.021232
0.64600,0.048384,0.007748,-0.004556
0.64700,0.015195,-0.009413,-0.001318
0.64800,0.009367,-0.003585,-0.013137
0.64900,-0.026574,0.004348,-0.025117
0.65000,-0.152206,0.012281,-0.014918
0.65100,-0.419983,0.012929,-0.039202
0.65200,-0.220850,0.007910,-0.021879
0.65300,0.005643,0.005481,0.004672
0.65400,0.055022,0.013414,0.031385
0.65500,0.028794,0.020700,0.044498
0.65600,-0.146216,0.017138,0.037537
0.65700,0.006291,0.005319,0.015681
0.65800,0.078497,0.005481,-0.001318
0.65900,0.108933,-0.004071,-0.031107
0.66000,0.178225,-0.006175,-0.012327
0.66100,0.167702,-0.006337,-0.028193
0.66200,0.085782,-0.014918,-0.033698
0.66300,-0.059277,-0.006823,-0.002937
0.66400,-0.164834,-0.004394,0.000139
0.66500,-0.132131,-0.008766,0.007748
0.66600,-0.110599,0.006776,0.011795
0.66700,0.000948,0.003862,0.020700
0.66800,0.136456,0.009529,0.012281
0.66900,0.107314,0.015519,0.022804
0.67000,-0.096190,-0.006985,0.039965
0.67100,0.050651,0.002243,0.067812
0.67200,0.150379,-0.006661,0.065059
0.67300,-0.052640,-0.006337,0.048546
0.67400,-0.002452,-0.004556,0.008719
0.67500,-0.033698,-0.006985,0.011310
0.67600,0.017785,-0.011194,0.019728
0.67700,-0.028193,0.003053,0.004024
0.67800,0.066516,0.006291,0.001596
0.67900,0.199595,-0.002128,-0.016051
0.68000,-0.042278,0.011310,-0.012165
0.68100,-0.059925,-0.003261,-0.009737
0.68200,-0.070448,0.002243,-0.012327
0.68300,-0.240926,-0.000833,-0.007470
0.68400,-0.094733,0.004024,0.011148
0.68500,-0.092304,0.002081,0.001596
0.68600,-0.086314,0.007262,-0.010546
0.68700,-0.065915,0.013090,0.007262
0.68800,-0.062515,0.015195,-0.001318
0.68900,0.108610,0.009367,0.001110
0.69000,0.109743,0.003539,0.009853
0.69100,0.067973,0.003053,0.033328
0.69200,0.042232,0.002405,0.015843
0.69300,0.048546,0.016166,0.024261
0.69400,0.032842,0.008234,0.017462
0.69500,-0.027708,0.012443,0.008557
0.69600,-0.005366,0.002729,0.018433
0.69700,0.151026,0.005967,0.029280
0.69800,0.137427,-0.000509,0.014386
0.69900,0.073802,-0.002775,-0.006499
0.70000,0.086268,0.003539,0.005319
0.70100,0.019890,0.006129,0.000139
0.70200,-0.112380,-0.000833,-0.000023
0.70300,-0.212756,0.002081,-0.010708
0.70400,0.025556,0.005158,-0.016537
0.70500,0.115733,0.020052,-0.014108
0.70600,-0.001156,0.013090,0.001110
0.70700,0.095334,0.004348,0.034137
0.70800,-0.173738,-0.004556,0.021995
0.70900,-0.144111,-0.011842,0.034299
0.71000,0.183891,-0.008766,0.018433
0.71100,0.086430,-0.005851,0.000786
0.71200,0.073802,-0.020908,0.010662
0.71300,-0.030622,-0.022851,0.000624
0.71400,0.047736,-0.019613,-0.001156
0.71500,0.103267,-0.025927,0.015843
0.71600,0.053403,-0.021232,0.032356
0.71700,0.033004,-0.021555,0.033813
0.71800,-0.108818,-0.015403,0.018433
0.71900,-0.013461,-0.011680,-0.005690
0.72000,0.004672,-0.001480,-0.008442
0.72100,0.038670,-0.004718,-0.023822
0.72200,0.039318,-0.011518,-0.017022
0.72300,-0.134883,0.000139,-0.049887
0.72400,-0.155444,-0.001318,-0.025441
0.72500,0.032194,0.000786,0.000463
0.72600,0.092258,-0.003423,0.019081
0.72700,0.127551,0.010662,0.030737
0.72800,0.061983,0.019243,0.022966
0.72900,-0.016051,0.019081,-0.010708
0.73000,0.042070,0.007586,-0.009089
0.73100,0.115247,-0.010061,0.000139
0.73200,0.038023,-0.017508,0.001434
0.73300,-0.188309,-0.018156,0.015033
0.73400,-0.313941,-0.004071,0.030899
0.73500,-0.145568,0.012119,0.011471
0.73600,0.014548,0.017947,-0.027222
0.73700,-0.049402,0.018271,-0.027708
0.73800,-0.100723,0.013414,-0.038231
0.73900,0.028794,0.010338,-0.025927
0.74000,0.183730,0.007424,-0.006985
0.74100,0.088534,-0.004233,0.006615
0.74200,-0.029003,0.007100,-0.001480
0.74300,0.068297,0.017785,-0.010870
0.74400,0.202510,0.009043,0.004834
0.74500,-0.133264,0.014386,0.002243
0.74600,-0.366072,0.001920,-0.013784
0.74700,-0.124684,0.004024,-0.013461
0.74800,0.143255,0.007748,-0.019613
0.74900,0.012119,-0.017832,-0.014108
0.75000,-0.084533,-0.021717,-0.012327
0.75100,0.071211,-0.021879,-0.042764
0.75200,-0.050211,-0.014270,-0.059601
0.75300,-0.058792,-0.001966,-0.037259
0.75400,-0.073039,-0.008927,-0.027546
0.75500,-0.028193,-0.018803,0.015681
0.75600,-0.001642,-0.011194,-0.008118
0.75700,-0.086800,-0.007632,-0.015080
0.75800,0.150217,-0.013623,0.002729
0.75900,0.072668,0.002567,0.023614
0.76000,-0.117560,0.009529,0.016814
0.76100,-0.092628,0.005158,0.000948
0.76200,-0.063972,0.001920,-0.023822
0.76300,0.000948,0.008072,-0.032888
0.76400,0.060688,-0.001804,-0.038878
0.76500,0.088211,0.018595,-0.037583
0.76600,-0.016375,0.021995,-0.018156
0.76700,-0.014918,0.024747,-0.007147
0.76800,0.068297,0.005319,-0.024146
0.76900,0.106181,0.000624,-0.037907
0.77000,0.117352,0.004510,-0.042116
0.77100,0.129332,0.000786,-0.041793
0.77200,0.050812,-0.001642,-0.005851
0.77300,0.020700,0.006615,0.014548
0.77400,0.019890,0.001272,0.016328
0.77500,-0.014270,0.009043,0.005805
0.77600,-0.052963,0.014548,-0.019289
0.77700,-0.032726,0.011471,-0.012975
0.77800,0.012767,0.007424,0.027499
0.77900,0.013576,0.005158,0.007910
0.78000,0.098896,0.014871,-0.000671
0.78100,-0.003423,0.000786,-0.038717
0.78200,-0.043735,-0.006175,-0.029165
0.78300,-0.008280,-0.006013,-0.008118
0.78400,-0.003909,-0.005851,0.003377
0.78500,0.015843,-0.002614,0.000139
0.78600,-0.025117,-0.009575,0.016490
0.78700,-0.010870,-0.001318,0.006453
0.78800,-0.041307,-0.001966,-0.007956
0.78900,-0.035640,0.001596,-0.025441
0.79000,-0.031107,-0.001318,-0.012165
0.79100,-0.009737,-0.001966,-0.010870
0.79200,-0.005851,0.007100,0.007424
0.79300,-0.006013,0.010176,-0.000671
0.79400,-0.007956,0.005643,0.006291
0.79500,-0.036126,0.003377,-0.015241
0.79600,-0.018156,0.001434,-0.010385
0.79700,-0.028679,0.014062,-0.012165
0.79800,-0.007470,0.021833,-0.002614
0.79900,-0.018156,0.021185,-0.029326
0.80000,-0.013623,0.019404,-0.026250
0.80100,-0.014270,0.010824,-0.029974
0.80200,-0.022041,0.000786,0.009853
0.80300,-0.005851,0.007424,0.027337
0.80400,-0.019775,0.012281,0.046279
0.80500,-0.024470,0.011633,0.031709
0.80600,-0.003423,0.014548,0.026204
0.80700,-0.006823,0.003215,0.013576
0.80800,-0.015727,-0.005366,0.009205
0.80900,-0.010546,-0.009251,-0.020098
0.81000,-0.028517,-0.000833,-0.014918
0.81100,-0.016537,-0.002452,-0.033212
0.81200,-0.020422,-0.001642,-0.021879
0.81300,-0.014756,-0.020260,-0.018318
0.81400,-0.013299,-0.025117,0.005481
0.81500,-0.016051,-0.015080,0.012929
0.81600,-0.002128,-0.013623,-0.001642
0.81700,-0.009737,-0.003261,-0.013623
0.81800,-0.000509,-0.001642,-0.004880
0.81900,-0.003261,-0.009737,0.003539
0.82000,0.004024,-0.014594,0.002729
0.82100,0.009043,-0.015241,0.023290
0.82200,0.001596,-0.012975,0.020700
0.82300,-0.008927,0.002081,0.016652
0.82400,-0.007632,-0.000023,0.011795
0.82500,-0.003909,0.003700,0.020862
0.82600,-0.012004,-0.010223,0.015033
0.82700,-0.003909,-0.015889,0.015357
0.82800,-0.000671,-0.018641,0.024261
0.82900,-0.006661,-0.012004,0.020862
0.83000,-0.020908,-0.005042,0.013252
0.83100,-0.002128,0.000301,0.018595
0.83200,0.001110,-0.000995,0.007100
0.83300,-0.008604,-0.003747,-0.003909
0.83400,-0.002290,-0.007309,-0.001318
0.83500,-0.000509,0.015357,0.005805
0.83600,-0.023660,0.032518,0.000463
0.83700,-0.002775,0.029280,-0.010223
0.83800,-0.006175,0.017624,-0.021070
0.83900,-0.014756,-0.022851,-0.020584
0.84000,-0.028841,-0.072229,-0.024793
0.84100,-0.027060,-0.048754,-0.006823
0.84200,-0.012975,0.001434,-0.001318
0.84300,-0.032564,0.007586,-0.000347
0.84400,-0.000347,0.009367,-0.005690
0.84500,0.010500,0.011795,-0.001480
0.84600,0.007100,-0.011842,0.012929
0.84700,0.019404,-0.027869,0.027175
0.84800,0.010662,-0.016860,0.013576
0.84900,-0.002614,0.004186,0.006938
0.85000,-0.013946,-0.008766,0.017785
0.85100,-0.009089,0.004024,0.015195
0.85200,0.009205,0.016814,0.003700
0.85300,-0.007632,0.033166,0.030575
0.85400,-0.006499,0.036080,-0.013784
0.85500,0.007100,0.014871,-0.020584
0.85600,-0.011842,-0.000833,-0.021555
0.85700,0.010014,-0.000185,-0.052316
0.85800,-0.002452,-0.031107,-0.050697
0.85900,-0.005204,-0.046811,-0.027384
0.86000,-0.010061,-0.035155,0.003539
0.86100,-0.011842,-0.019775,0.014709
0.86200,-0.005851,0.000463,0.007910
0.86300,-0.012165,0.015519,0.009853
0.86400,0.002567,0.020052,-0.005690
0.86500,0.010176,0.006938,0.004510
0.86600,0.016328,-0.002937,0.002405
0.86700,0.015033,-0.010546,-0.016051
0.86800,-0.003747,0.001758,-0.016051
0.86900,-0.016213,-0.008442,-0.015889
0.87000,-0.005204,0.017462,-0.010708
0.87100,0.011957,-0.004556,-0.000023
0.87200,0.027985,-0.010546,0.008395
0.87300,0.027823,-0.013137,0.006453
0.87400,0.007100,-0.012165,-0.002452
0.87500,0.000786,0.003539,0.004834
0.87600,0.000463,-0.004071,0.011957
0.87700,0.007262,0.017785,0.005805
0.87800,0.017138,0.009043,0.008072
0.87900,-0.000023,-0.005690,0.003700
0.88000,0.016490,-0.011680,0.006776
0.88100,0.001758,0.003700,-0.003423
0.88200,0.000948,0.020538,0.008557
0.88300,-0.000185,-0.001966,-0.010385
0.88400,0.008072,0.004186,-0.005528
0.88500,0.011471,-0.014432,-0.014594
0.88600,0.016976,-0.012327,0.005967
0.88700,0.018595,-0.006661,0.012929
0.88800,0.003700,0.007100,0.005805
0.88900,0.014548,0.033166,0.016005
0.89000,-0.008442,0.015357,0.008881
0.89100,-0.006985,-0.000509,0.007748
0.89200,-0.004233,-0.001156,0.012119
0.89300,-0.020746,-0.012975,0.020052
0.89400,0.030413,-0.014594,0.023614
0.89500,0.028633,0.008557,0.004672
0.89600,0.030413,0.003539,0.009853
0.89700,0.019243,-0.013461,-0.000185
0.89800,0.008395,-0.032241,-0.013623
0.89900,-0.009575,-0.010546,-0.016537
0.90000,-0.000023,-0.013461,-0.010708
0.90100,0.000624,-0.036288,-0.011680
0.90200,-0.002614,-0.024631,-0.006661
0.90300,-0.007632,0.017300,-0.016537
0.90400,0.002243,0.013738,0.006129
0.90500,0.007424,-0.005366,0.007262
0.90600,-0.002128,0.015033,0.000301
0.90700,0.005967,-0.007309,0.008557
0.90800,-0.003747,-0.020260,0.017462
0.90900,-0.001156,-0.050697,0.014062
0.91000,-0.004071,-0.028517,0.005643
0.91100,-0.000185,-0.015080,0.008557
0.91200,0.010824,0.007748,-0.004556
0.91300,0.009529,0.031547,-0.001156
0.91400,0.011633,-0.005528,0.006615
0.91500,0.003539,-0.054744,0.008072
0.91600,0.014709,-0.056525,0.002891
0.91700,0.017785,-0.047297,0.010338
0.91800,0.020700,-0.004233,0.002405
0.91900,0.001920,0.024261,-0.003585
0.92000,-0.012975,-0.014918,-0.001966
0.92100,-0.029488,-0.061706,0.006129
0.92200,-0.002452,-0.042926,0.001110
0.92300,0.012443,0.088696,0.009529
0.92400,0.011957,0.084325,0.009853
0.92500,0.014709,0.030737,0.001758
0.92600,-0.020260,0.075097,0.004186
0.92700,-0.021394,0.137265,0.000301
0.92800,0.003700,0.072183,-0.006661
0.92900,-0.000509,-0.005851,0.000463
0.93000,0.007100,-0.001804,0.003539
0.93100,-0.000509,0.002243,0.010176
0.93200,0.005319,0.011148,0.000624
0.93300,0.005158,0.024585,0.009529
0.93400,-0.000995,0.026528,0.000624
0.93500,0.000139,0.021995,-0.004071
0.93600,0.002243,-0.014432,0.006129
0.93700,0.021833,-0.020908,0.002243
0.93800,0.004186,0.009691,-0.015889
0.93900,0.010338,0.005643,-0.005366
0.94000,-0.005366,-0.008604,-0.007147
0.94100,-0.014432,-0.022527,0.012443
0.94200,-0.018965,-0.010223,0.016814
0.94300,-0.009251,-0.004718,0.006776
0.94400,-0.008280,-0.034669,0.010824
0.94500,0.002243,-0.075953,-0.005851
0.94600,0.001110,-0.133102,-0.005690
0.94700,0.006129,-0.155606,0.006938
0.94800,0.000463,-0.054420,-0.004233
0.94900,-0.018318,0.082706,0.009691
0.95000,-0.011680,0.026690,0.011148
0.95100,-0.005528,-0.152692,0.007910
0.95200,-0.012813,-0.344540,0.004834
0.95300,-0.003585,-0.299856,-0.004718
0.95400,-0.002775,-0.164834,0.000948
0.95500,-0.019613,0.222261,0.005643
0.95600,-0.021070,0.441145,0.001920
0.95700,-0.016860,0.208985,0.009043
0.95800,-0.020908,0.209471,0.007424
0.95900,-0.004556,0.118000,0.009691
0.96000,0.008881,0.007910,-0.005204
0.96100,-0.004718,0.001434,0.008395
0.96200,-0.005204,0.032032,0.009043
0.96300,-0.013299,0.081897,-0.011194
0.96400,0.003377,0.004834,-0.014756
0.96500,0.003377,0.026204,-0.010385
0.96600,0.001920,0.024261,-0.006661
0.96700,0.007910,0.071373,0.001110
0.96800,0.000624,0.108933,0.000139
0.96900,0.005319,0.030899,0.004672
0.97000,-0.008766,-0.022041,0.006453
0.97100,0.002081,-0.105742,0.009529
0.97200,0.004186,-0.258087,-0.007794
0.97300,0.017300,-0.330778,-0.009737
0.97400,0.002081,-0.231374,0.008719
0.97500,-0.017670,-0.005204,-0.001966
0.97600,-0.012004,0.170778,0.012929
0.97700,-0.010385,0.306285,-0.000023
0.97800,-0.033374,0.142122,-0.006823
0.97900,-0.014108,-0.258410,0.001110
0.98000,0.002891,-0.168234,0.004834
0.98100,-0.000995,-0.289980,-0.002452
0.98200,-0.003909,-0.310379,-0.002937
0.98300,-0.012975,-0.138931,0.001110
0.98400,-0.019613,0.169159,0.000139
0.98500,-0.019936,0.267592,0.006776
0.98600,0.004834,0.195710,0.004510
0.98700,0.021509,0.366511,-0.004880
0.98800,0.021995,0.062631,-0.008442
0.98900,0.010014,0.065059,-0.005366
0.99000,-0.014108,0.112495,-0.008927
0.99100,-0.001804,0.075421,-0.000347
0.99200,0.009853,0.051298,-0.000833
0.99300,0.019728,0.040613,-0.003909
0.99400,0.020862,0.074287,-0.004394
0.99500,0.006615,0.126904,0.001272
0.99600,-0.012489,0.147950,0.000139
0.99700,-0.011518,0.046279,-0.009737
0.99800,-0.013946,0.094363,-0.006985
0.99900,-0.017184,0.047898,-0.012165
1.00000,0.002891,0.069592,-0.004556
1.00100,0.011957,0.038832,-0.008442
1.00200,0.012443,0.007262,-0.001804
1.00300,0.011148,-0.066239,-0.008280
1.00400,-0.000023,-0.129864,-0.004071
1.00500,-0.004394,-0.083400,-0.004556
1.00600,0.000948,-0.066725,-0.003099
1.00700,-0.018965,-0.011032,-0.002128
1.00800,-0.009737,-0.028031,0.001272
1.00900,0.014386,-0.202232,-0.001480
1.01000,0.003377,-0.228136,0.003215
1.01100,0.001596,-0.223279,0.006615
1.01200,-0.002775,-0.062839,0.004834
1.01300,-0.006175,0.162035,0.012929
1.01400,-0.006499,0.072183,0.009853
1.01500,-0.010546,-0.000671,-0.000995
1.01600,-0.002128,-0.286257,0.005481
1.01700,-0.000671,-0.327540,0.007910
1.01800,0.016976,-0.229431,-0.001804
1.01900,0.015357,-0.099590,-0.001966
1.02000,-0.007956,0.007586,0.001110
1.02100,-0.015565,0.299971,0.009529
1.02200,0.021509,0.343845,0.006615
1.02300,0.004672,-0.073201,0.006615
1.02400,-0.008604,0.021671,0.003215
1.02500,-0.006337,0.096143,0.008072
1.02600,-0.004556,0.370720,-0.000347
1.02700,0.005319,0.094363,0.002729
1.02800,0.015843,-0.033050,0.006938
1.02900,0.021671,0.062631,0.016005
1.03000,0.009529,-0.048268,0.010986
1.03100,-0.005042,0.107314,0.013252
1.03200,-0.038555,0.012281,0.011310
1.03300,-0.023660,0.021833,0.003539
1.03400,-0.000185,0.033975,0.011957
1.03500,0.023776,0.019404,0.008395
1.03600,0.028794,-0.111894,0.007748
1.03700,0.018595,-0.171958,0.007424
1.03800,0.005481,-0.270229,0.000786
1.03900,-0.004233,-0.253230,-0.000995
1.04000,-0.013784,-0.041145,-0.000995
1.04100,-0.039202,0.085135,0.003215
1.04200,-0.030784,-0.019451,0.012929
1.04300,-0.014756,0.176930,0.018919
1.04400,-0.002937,0.090639,0.019243
1.04500,0.018109,-0.163215,0.017300
1.04600,0.001110,0.077525,0.015357
1.04700,0.020538,0.153293,0.017785
1.04800,0.000463,0.124637,0.034299
1.04900,-0.018965,-0.016699,0.010986
1.05000,0.009205,0.036080,0.009367
1.05100,0.005967,-0.020584,0.000301
1.05200,0.037537,-0.034993,0.011471
1.05300,0.031223,0.006938,0.004348
1.05400,0.018109,-0.103961,0.001110
1.05500,0.009043,-0.101532,-0.000509
1.05600,-0.004233,0.003215,0.012929
1.05700,0.002891,0.030413,-0.002290
1.05800,-0.007956,0.127875,-0.008927
1.05900,-0.005042,0.241851,0.002729
1.06000,0.021185,0.071373,0.003377
1.06100,0.028471,0.002891,-0.008766
1.06200,0.020052,-0.235097,-0.029165
1.06300,0.004672,-0.453010,-0.006823
1.06400,-0.025279,-0.592728,-0.008766
1.06500,-0.045354,-0.388899,-0.004394
1.06600,-0.004233,0.209471,-0.015727
1.06700,0.017462,0.365540,0.011471
1.06800,0.015843,0.280382,-0.005204
1.06900,0.021509,0.369425,0.000139
1.07000,0.013252,0.135970,-0.000347
1.07100,-0.012165,0.004834,-0.011518
1.07200,-0.020584,0.050489,-0.000347
1.07300,0.008072,-0.057658,0.025556
1.07400,0.009367,0.005643,0.004996
1.07500,0.007910,-0.134721,0.013252
1.07600,0.002405,-0.131321,0.014386
1.07700,0.026528,-0.065429,0.023938
1.07800,0.026366,0.004672,0.003377
1.07900,-0.001156,0.035918,-0.024631
1.08000,0.002567,-0.055230,-0.042440
1.08100,-0.009737,-0.176491,-0.028517
1.08200,-0.025765,0.008881,-0.016537
1.08300,-0.033698,0.232622,-0.003261
1.08400,-0.017184,0.187777,0.000139
1.08500,-0.020260,0.146493,0.008881
1.08600,-0.013137,0.040937,0.020862
1.08700,0.018757,0.015519,0.011310
1.08800,0.011471,-0.156254,0.025233
1.08900,0.015357,-0.228945,0.003377
1.09000,0.019728,-0.202556,0.006129
1.09100,0.015357,-0.041469,-0.001480
1.09200,0.029442,0.093877,0.010176
1.09300,0.020700,0.189396,0.001434
1.09400,0.006615,0.265973,0.008719
1.09500,0.003539,-0.011842,0.023938
1.09600,-0.007956,-0.043735,0.006291
1.09700,-0.005851,-0.083400,0.005481
1.09800,-0.001966,-0.092304,-0.005204
1.09900,0.003862,-0.024631,0.005481
1.10000,-0.034831,-0.244649,0.001110
1.10100,-0.029650,-0.550310,-0.001804
1.10200,0.004996,-0.498989,0.001758
1.10300,-0.002290,0.259012,0.001272
1.10400,-0.012651,0.377844,-0.005042
1.10500,-0.027222,-0.277029,0.009853
1.10600,-0.027546,0.122209,-0.005851
1.10700,-0.040659,0.418642,-0.002614
1.10800,-0.004394,0.141636,-0.002614
1.10900,0.016814,0.398081,-0.006175
1.11000,0.007910,0.054374,0.000301
1.11100,0.001110,0.045955,-0.006499
1.11200,-0.011194,0.193605,0.003539
1.11300,-0.025279,0.168188,-0.005204
1.11400,-0.002128,0.136294,0.004672
1.11500,0.009205,0.106829,0.001272
1.11600,-0.001804,-0.010061,0.001758
1.11700,0.020862,-0.116103,0.005158
1.11800,-0.008604,-0.084209,0.004186
1.11900,-0.027708,-0.189928,-0.002614
1.12000,0.005805,-0.065429,-0.001966
1.12100,0.008234,-0.222793,0.038023
1.12200,-0.021070,-0.223926,0.027985
1.12300,-0.005690,-0.060734,0.006453
1.12400,-0.016375,-0.257601,-0.012165
1.12500,-0.003585,-0.058468,-0.017832
1.12600,-0.006337,0.256421,-0.018965
1.12700,0.016490,0.192310,-0.015565
1.12800,0.034947,0.196843,-0.001156
1.12900,0.044498,0.122047,-0.018641
1.13000,0.053727,0.103753,-0.012327
1.13100,0.018271,0.029442,0.002081
1.13200,0.012929,-0.138769,-0.002937
1.13300,-0.027546,-0.181348,0.006453
1.13400,-0.051021,-0.041307,-0.002614
1.13500,-0.046002,0.126418,0.007262
1.13600,-0.013299,-0.274600,-0.001318
1.13700,-0.033536,-0.560186,-0.001966
1.13800,-0.022041,-0.468391,-0.001480
1.13900,-0.006823,-0.336930,0.001434
1.14000,-0.024308,-0.072229,0.006776
1.14100,0.001272,0.555930,0.007100
1.14200,0.023128,0.520313,0.002567
1.14300,-0.001318,0.181301,0.009043
1.14400,0.008234,0.287667,0.004834
1.14500,0.042070,0.140503,0.010176
1.14600,0.026528,0.047736,0.001758
1.14700,0.022480,0.033651,-0.008766
1.14800,0.043041,-0.021717,-0.015727
1.14900,0.053079,-0.195109,-0.012327
1.15000,-0.010708,-0.026089,-0.020584
1.15100,-0.046002,-0.035964,-0.018318
1.15200,-0.022689,-0.199966,-0.003261
1.15300,-0.030460,-0.084209,0.002243
1.15400,-0.023336,0.057450,-0.000995
1.15500,0.017138,0.084325,-0.011356
1.15600,-0.004880,0.106343,-0.011356
1.15700,0.006938,0.205424,-0.005204
1.15800,0.006938,0.006938,0.006615
1.15900,-0.002937,-0.008927,-0.006013
1.16000,-0.023498,-0.004394,-0.013299
1.16100,-0.042926,-0.006661,0.004996
1.16200,-0.045678,0.041422,-0.000995
1.16300,-0.040497,0.021347,0.004834
1.16400,-0.001642,0.005643,-0.010385
1.16500,0.018595,-0.016051,-0.049402
1.16600,0.025880,0.032518,-0.090362
1.16700,0.031709,0.035594,-0.113675
1.16800,0.042718,-0.041469,-0.087286
1.16900,0.024423,-0.182319,-0.039688
1.17000,-0.012327,-0.122903,0.002081
1.17100,-0.049240,0.091448,0.024423
1.17200,-0.039202,-0.007309,0.047736
1.17300,-0.009899,-0.186528,0.063602
1.17400,-0.020422,-0.113837,0.058422
1.17500,-0.019775,-0.036450,0.028794
1.17600,-0.039526,0.124637,-0.024631
1.17700,-0.026412,0.240717,-0.028517
1.17800,0.004024,0.103429,-0.029003
1.17900,0.026366,-0.066887,-0.005851
1.18000,0.018271,-0.028355,0.005967
1.18100,-0.022041,-0.012327,0.000786
1.18200,-0.003747,-0.005690,0.047898
1.18300,0.025071,0.025233,0.072668
1.18400,0.009529,-0.005528,0.011633
1.18500,0.020214,-0.100723,-0.035317
1.18600,-0.001318,-0.087933,-0.067048
1.18700,0.004834,-0.005204,-0.081133
1.18800,0.029442,-0.017022,-0.040821
1.18900,0.028633,0.002081,0.015033
1.19000,-0.000347,-0.042440,0.036242
1.19100,-0.028031,-0.033698,0.038184
1.19200,0.009529,-0.068829,0.080116
1.19300,0.008234,-0.016699,0.120428
1.19400,0.006776,0.009367,0.089344
1.19500,-0.014108,0.011957,0.072345
1.19600,-0.039364,0.026204,0.050327
1.19700,-0.038393,-0.025441,0.026528
1.19800,-0.040012,-0.018965,0.012443
1.19900,-0.028679,0.022480,-0.005690
1.20000,0.017947,0.006776,-0.006337
1.20100,0.032032,-0.053449,-0.000185
1.20200,0.023614,-0.047945,-0.001642
1.20300,-0.000347,0.012119,-0.009575
1.20400,-0.002290,0.089668,-0.017184
1.20500,0.020700,0.060364,-0.003747
1.20600,0.024099,0.021833,-0.001318
1.20700,0.019728,-0.040497,-0.009737
1.20800,-0.006175,-0.055392,-0.001642
1.20900,0.001758,-0.102504,0.000139
1.21000,0.039803,-0.090847,0.006615
1.21100,0.046603,0.007586,0.005481
1.21200,0.010662,-0.021555,-0.001966
1.21300,-0.044383,-0.031107,-0.005204
1.21400,-0.044707,0.003862,0.005158
1.21500,-0.035802,-0.000671,0.002729
1.21600,-0.027869,-0.030784,-0.001966
1.21700,-0.050859,0.015195,0.002891
1.21800,-0.040659,0.014386,0.007586
1.21900,-0.016051,0.000624,0.004024
1.22000,-0.001480,0.010014,-0.003747
1.22100,0.008234,0.003377,-0.012651
1.22200,-0.015565,-0.003099,-0.002614
1.22300,-0.006823,0.011310,-0.003747
1.22400,-0.004880,0.014871,-0.003909
1.22500,0.008881,-0.006013,-0.007632
1.22600,0.017138,-0.013946,0.005967
1.22700,0.025556,-0.006013,0.010986
1.22800,0.007910,0.016652,0.011310
1.22900,0.007586,0.005643,-0.008280
1.23000,0.017300,-0.012975,0.002891
1.23100,-0.008118,0.005158,0.000948
1.23200,0.003700,0.012929,0.003053
1.23300,-0.000995,0.003862,0.005481
1.23400,-0.002614,0.002729,-0.000347
1.23500,0.011310,-0.001480,-0.002775
1.23600,-0.014594,0.003539,0.003215
1.23700,0.001434,0.004510,-0.011356
1.23800,0.011471,0.004510,-0.012327
1.23900,-0.006499,0.013252,-0.004394
1.24000,0.010176,-0.001642,-0.007470
1.24100,0.007910,0.006453,-0.004071
1.24200,0.004834,0.014386,-0.009575
1.24300,-0.013623,0.012443,-0.011518
1.24400,-0.004556,0.008719,-0.000347
1.24500,0.011957,0.002243,-0.008118
1.24600,0.014386,0.005319,0.001272
1.24700,0.003700,0.010662,-0.000185
1.24800,0.013414,0.007100,0.011148
1.24900,0.004186,0.009529,0.018109
1.25000,-0.009575,0.007586,0.010500
1.25100,-0.003423,0.001110,0.003215
1.25200,-0.004880,-0.007309,-0.003747
1.25300,0.007262,0.004996,-0.010385
1.25400,-0.004556,0.004672,0.000139
1.25500,0.001758,0.014871,-0.012975
1.25600,-0.003585,0.008072,0.005319
1.25700,0.001272,-0.004718,0.010500
1.25800,0.008395,0.002081,0.002405
1.25900,-0.004394,0.008395,0.024261
1.26000,0.008557,0.012281,0.000463
1.26100,-0.001966,0.006938,0.009043
1.26200,0.002729,-0.002614,0.005643
1.26300,0.003377,0.010014,0.004186
1.26400,-0.005042,0.001758,-0.007147
1.26500,0.005643,-0.000509,-0.008118
1.26600,0.006615,-0.002290,-0.000509
1.26700,0.010014,0.000301,0.003539
1.26800,0.007100,0.000463,-0.000185
1.26900,0.010500,0.000786,0.007424
1.27000,-0.000995,0.009691,-0.009251
1.27100,0.006615,-0.001318,-0.006661
1.27200,-0.005366,-0.001642,0.005643
1.27300,0.002081,-0.002452,0.009853
1.27400,-0.008604,0.004186,0.010176
1.27500,-0.007632,0.000463,0.013738
1.27600,-0.000347,0.005967,0.016652
1.27700,-0.010870,0.008557,-0.001318
1.27800,-0.014756,0.003700,-0.042278
1.27900,-0.009899,-0.001642,-0.097971
1.28000,-0.000671,-0.004718,-0.078057
1.28100,0.004672,-0.004718,-0.011680
1.28200,0.006615,-0.010223,-0.051668
1.28300,0.001758,0.004510,-0.028193
1.28400,-0.000347,-0.004880,-0.001318
1.28500,0.005967,-0.002614,-0.008766
1.28600,0.014709,-0.012651,0.025880
1.28700,0.019243,-0.009899,0.071049
1.28800,0.009043,0.000948,0.075259
1.28900,0.007910,-0.002290,-0.030945
1.29000,0.002567,0.001596,-0.085667
1.29100,-0.001156,0.002243,-0.057658
1.29200,0.000786,-0.011518,-0.041307
1.29300,0.007424,0.007424,-0.013461
1.29400,0.001434,0.006938,0.006453
1.29500,-0.002775,0.006129,-0.046002
1.29600,-0.003099,0.006615,-0.061868
1.29700,-0.002775,0.003539,-0.014270
1.29800,0.001596,0.006615,0.005481
1.29900,0.009853,-0.002452,0.005319
1.30000,0.010338,0.008557,0.020214
1.30100,0.014062,0.000786,0.044660
1.30200,0.018919,0.000463,0.063117
1.30300,0.017138,0.010014,0.027661
1.30400,0.024261,0.000301,-0.105418
1.30500,0.014548,0.002567,-0.180052
1.30600,0.027499,-0.006175,-0.106875
1.30700,0.029442,-0.005366,-0.072715
1.30800,0.013090,-0.002937,0.006453
1.30900,0.015033,-0.004071,0.037051
1.31000,0.010338,0.004510,0.081897
1.31100,0.007586,0.004834,0.109581
1.31200,0.008557,-0.010223,0.129980
1.31300,-0.003747,0.001272,0.112981
1.31400,0.007100,-0.004071,0.117028
1.31500,0.000948,0.008234,0.078659
1.31600,-0.009251,0.009691,0.064574
1.31700,-0.013299,0.008719,0.064574
1.31800,-0.012327,-0.000023,0.040127
1.31900,-0.021232,0.002567,0.022319
1.32000,-0.037907,0.004186,0.002729
1.32100,-0.048268,-0.008604,-0.017994
1.32200,-0.047135,-0.008118,0.006615
1.32300,-0.007470,0.006938,0.021185
1.32400,0.012281,0.006291,0.015033
1.32500,0.041099,0.003539,0.009691
1.32600,0.060688,0.002405,0.023452
1.32700,0.045470,0.005158,0.019566
1.32800,0.046441,0.016814,0.019890
1.32900,0.055669,0.005158,-0.006823
1.33000,0.024747,0.010014,-0.012327
1.33100,0.026366,0.006291,-0.039040
1.33200,0.088696,-0.004556,-0.037098
1.33300,0.072345,-0.008927,-0.052640
1.33400,0.116381,-0.011680,-0.042440
1.33500,0.100677,-0.006823,-0.020260
1.33600,0.064088,-0.014270,-0.011194
1.33700,0.083192,-0.004233,-0.002128
1.33800,-0.009089,0.007586,-0.004233
1.33900,-0.127112,0.014548,0.018271
1.34000,-0.056039,0.032032,0.029442
1.34100,0.004186,0.013252,0.020862
1.34200,-0.106389,0.007100,0.018919
1.34300,-0.115779,0.002567,-0.006985
1.34400,-0.085990,-0.014756,-0.009575
1.34500,0.015681,-0.000185,-0.008927
1.34600,-0.093438,-0.004718,0.002243
1.34700,-0.290466,-0.011032,0.000463
1.34800,-0.227488,-0.010385,-0.006337
1.34900,-0.063487,-0.004071,-0.005851
1.35000,0.002891,0.007262,-0.005528
1.35100,0.071049,-0.008280,0.001434
1.35200,-0.037259,-0.007470,-0.011194
1.35300,-0.155930,-0.005366,-0.008280
1.35400,-0.063163,-0.004556,-0.009413
1.35500,-0.056201,0.002891,-0.012813
1.35600,-0.093923,0.006615,-0.004071
1.35700,-0.087286,0.017138,0.003539
1.35800,-0.069153,0.014386,-0.007470
1.35900,0.005805,0.009043,-0.007956
1.36000,0.118647,0.001596,-0.009089
1.36100,0.153779,-0.011356,-0.015403
1.36200,0.232461,-0.018803,-0.008766
1.36300,0.189396,-0.009737,-0.013784
1.36400,0.141960,-0.017346,-0.019127
1.36500,0.195872,-0.019289,-0.012975
1.36600,0.177416,-0.009413,-0.002290
1.36700,0.047898,0.003539,-0.013137
1.36800,0.014386,-0.008604,0.003539
1.36900,0.084001,-0.007147,-0.007309
1.37000,-0.090362,-0.008280,-0.009251
1.37100,-0.126303,-0.005528,-0.009413
1.37200,-0.135207,-0.004556,-0.005204
1.37300,-0.212917,-0.002290,-0.016375
1.37400,-0.098942,-0.003261,-0.008118
1.37500,-0.036288,-0.003261,0.005158
1.37600,0.109095,0.000301,-0.008442
1.37700,0.204776,0.002243,-0.010385
1.37800,0.125447,0.003539,-0.000833
1.37900,0.041422,0.001920,-0.007147
1.38000,0.057450,0.006615,-0.000347
1.38100,0.055184,0.005481,-0.015565
1.38200,-0.038069,0.011148,-0.014432
1.38300,-0.260191,0.008395,-0.007632
1.38400,-0.265858,0.022966,-0.000509
1.38500,-0.056201,0.009529,0.003862
1.38600,-0.030460,0.015519,0.004672
1.38700,0.013090,0.011310,0.006291
1.38800,-0.022041,0.004672,0.009691
1.38900,-0.066401,0.011633,0.006129
1.39000,-0.058306,-0.000185,0.006776
1.39100,0.026690,0.001758,0.001434
1.39200,0.001596,0.000948,0.001272
1.39300,-0.085343,0.004510,-0.013623
1.39400,-0.044059,0.014871,-0.000671
1.39500,-0.009575,0.009691,0.000301
1.39600,-0.006823,0.009205,0.004996
1.39700,-0.029165,0.009043,-0.010708
1.39800,-0.028679,0.014062,-0.009413
1.39900,-0.044221,0.015519,-0.007147
1.40000,-0.042926,0.016652,-0.004556
1.40100,-0.019775,0.024261,0.000948
1.40200,-0.029165,0.021347,0.002243
1.40300,-0.026736,0.024099,-0.002128
1.40400,0.024099,0.012929,-0.009089
1.40500,0.051784,0.014871,0.007100
1.40600,0.076230,0.011795,0.000301
1.40700,0.093877,0.010014,-0.007147
1.40800,0.035108,0.006938,-0.002452
1.40900,0.025233,0.009367,-0.005851
1.41000,0.012605,0.019243,-0.014108
1.41100,0.010824,0.016166,0.002243
1.41200,-0.004394,0.011471,-0.004556
1.41300,-0.008442,0.017138,0.004996
1.41400,-0.026574,0.017300,-0.008118
1.41500,-0.042926,0.026690,-0.000509
1.41600,0.008234,0.022966,0.004348
1.41700,0.044013,0.013090,0.008072
1.41800,0.012443,0.007748,-0.001804
1.41900,-0.009899,0.010986,0.000624
1.42000,-0.023174,0.015681,0.017785
1.42100,0.018433,0.016976,0.008234
1.42200,0.061012,0.007910,0.002081
1.42300,0.062631,-0.022041,-0.001642
1.42400,0.066516,-0.014594,-0.001480
1.42500,0.053727,-0.023174,0.012605
1.42600,-0.001966,-0.020584,0.011148
1.42700,-0.118370,-0.016699,0.020862
1.42800,-0.096676,-0.013946,-0.007309
1.42900,0.005967,-0.014756,0.002243
1.43000,-0.021394,-0.005042,0.006615
1.43100,-0.007632,0.012929,0.015033
1.43200,-0.018318,0.009529,0.005481
1.43300,-0.032403,0.009853,0.014871
1.43400,-0.024631,-0.001966,0.011795
1.43500,-0.038555,-0.005204,0.023452
1.43600,-0.085828,-0.020422,0.008719
1.43700,-0.064134,-0.026736,0.021347
1.43800,0.057936,-0.017994,0.002729
1.43900,0.107314,-0.022689,0.001434
1.44000,0.138075,-0.008118,0.009043
1.44100,0.115085,-0.000833,0.009367
1.44200,0.001758,-0.000347,0.009043
1.44300,0.000301,0.003215,0.011148
1.44400,-0.036450,-0.002452,-0.008604
1.44500,-0.040821,-0.000995,-0.000833
1.44600,0.012281,0.000301,0.003539
1.44700,0.000301,0.004510,-0.000995
1.44800,-0.004880,0.006291,0.011148
1.44900,-0.008766,0.002891,0.011795
1.45000,0.009853,0.004348,0.002567
1.45100,0.011633,-0.000347,0.013252
1.45200,-0.040659,0.005319,0.007262
1.45300,-0.017508,-0.000995,0.002081
1.45400,0.021023,-0.003747,0.003862
1.45500,0.001758,0.002081,-0.002775
1.45600,-0.001480,-0.003909,0.002081
1.45700,-0.007632,-0.001156,-0.010385
1.45800,-0.013299,0.000624,0.002405
1.45900,-0.004718,-0.005366,-0.000347
1.46000,-0.012651,-0.001480,0.006938
1.46100,0.000301,-0.004394,0.010986
1.46200,-0.010870,0.003539,0.006129
1.46300,-0.011842,0.000301,0.009043
1.46400,-0.012651,-0.007794,0.009043
1.46500,-0.000509,0.006938,0.001596
1.46600,-0.001804,0.000948,0.005481
1.46700,-0.008604,0.003053,0.012281
1.46800,-0.017832,0.002729,0.007100
1.46900,-0.009413,-0.010870,0.006453
1.47000,-0.006985,-0.002290,-0.001480
1.47100,-0.009899,0.001596,0.000463
1.47200,0.006615,-0.005851,0.005967
1.47300,-0.013784,-0.007147,0.001272
1.47400,-0.000185,0.002081,0.006291
1.47500,-0.019451,-0.000671,0.000948
1.47600,-0.018156,-0.007956,0.004834
1.47700,-0.006013,-0.014756,0.015357
1.47800,-0.022527,-0.000995,0.005158
1.47900,-0.017670,-0.004880,0.006453
1.48000,-0.010385,-0.009575,0.010824
1.48100,0.033651,-0.012165,0.013252
1.48200,0.041422,-0.010870,0.002891
1.48300,0.025395,-0.009575,0.003377
1.48400,0.021509,-0.005690,-0.003909
1.48500,0.036404,-0.015241,0.012119
1.48600,0.027337,-0.014432,0.017462
1.48700,-0.031269,-0.009737,-0.000995
1.48800,-0.088743,-0.011032,0.021833
1.48900,-0.074010,-0.005366,-0.004718
1.49000,-0.039202,-0.011032,-0.008927
1.49100,-0.025441,-0.010708,0.004672
1.49200,-0.004071,-0.015241,0.011957
1.49300,-0.001318,-0.014756,0.011148
1.49400,0.007748,-0.018318,-0.002290
1.49500,0.019728,-0.009413,-0.007470
1.49600,0.012929,-0.013461,0.002729
1.49700,0.008881,-0.019127,0.000139
1.49800,-0.015403,-0.011356,0.006453
1.49900,-0.043412,-0.008280,-0.005366
1.50000,-0.035964,-0.009575,0.002243
1.50100,-0.023660,-0.013137,0.006615
1.50200,-0.011518,-0.010870,0.003053
1.50300,-0.010223,-0.008280,0.004672
1.50400,-0.059277,-0.014918,0.000139
1.50500,-0.068182,-0.014594,0.004186
1.50600,-0.007470,-0.011194,0.005158
1.50700,0.013252,-0.012004,0.008881
1.50800,-0.000347,-0.018318,-0.004718
1.50900,-0.007632,-0.012165,0.006615
1.51000,-0.006985,-0.010708,0.010986
1.51100,0.005643,-0.013946,0.003377
1.51200,-0.007309,-0.014918,-0.001156
1.51300,-0.012004,-0.014270,0.009691
1.51400,0.000463,-0.024146,0.009691
1.51500,0.011310,-0.017508,-0.002452
1.51600,0.006129,-0.018965,0.009205
1.51700,-0.000671,-0.010708,0.012767
1.51800,0.015519,-0.010708,0.002405
1.51900,0.007262,-0.011356,-0.000023
1.52000,-0.005042,-0.014594,-0.000509
1.52100,-0.008766,-0.012489,-0.002128
1.52200,0.028794,-0.015080,-0.002452
1.52300,0.001272,0.001920,0.022319
1.52400,-0.023013,-0.004880,-0.004071
1.52500,-0.019936,-0.006823,-0.003099
1.52600,-0.052963,-0.006985,0.002729
1.52700,-0.017022,-0.012813,0.006938
1.52800,0.013576,-0.003909,0.008719
1.52900,-0.002775,0.000301,-0.013461
1.53000,-0.003747,-0.007147,0.008881
1.53100,0.004672,-0.002452,-0.007470
1.53200,0.042232,-0.000023,-0.003261
1.53300,0.050003,0.002243,0.005158
1.53400,0.017624,-0.007470,-0.007309
1.53500,0.022319,-0.001804,-0.002614
1.53600,0.005643,0.002729,0.006615
1.53700,-0.060087,-0.001480,0.011633
1.53800,-0.098295,0.003700,-0.003585
1.53900,0.004672,-0.000185,-0.007147
1.54000,0.059717,-0.000509,-0.002128
1.54100,0.059231,0.004348,-0.003909
1.54200,0.053403,0.004996,0.004834
1.54300,0.044175,0.002243,-0.005366
1.54400,0.079792,0.002081,0.002081
1.54500,0.060526,0.003700,-0.003423
1.54600,-0.013623,0.006938,0.002567
1.54700,-0.010061,0.002891,-0.004071
1.54800,0.003539,0.003377,-0.000833
1.54900,-0.000023,0.006291,-0.008927
1.55000,0.020052,0.009691,-0.000185
1.55100,-0.113027,0.002891,-0.001804
1.55200,-0.169853,-0.000185,0.013252
1.55300,-0.011194,0.004024,0.003377
1.55400,0.051784,-0.005851,-0.002937
1.55500,-0.031107,0.008881,0.008072
1.55600,-0.013299,-0.002937,-0.006661
1.55700,-0.013784,-0.002614,0.002891
1.55800,-0.027546,0.001596,0.017300
1.55900,-0.018156,0.003700,-0.016213
1.56000,-0.012975,0.011148,-0.011356
1.56100,-0.021070,0.006291,-0.003423
1.56200,-0.002128,-0.000671,-0.007632
1.56300,-0.007470,0.004186,-0.004233
1.56400,0.003377,-0.002775,-0.006175
1.56500,0.015195,0.000948,-0.019289
1.56600,0.005805,-0.004233,-0.004394
1.56700,0.016328,0.007424,-0.000185
1.56800,0.002891,0.001272,-0.005366
1.56900,0.010338,-0.004556,0.005481
1.57000,-0.013784,0.005158,-0.005851
1.57100,-0.014594,0.001920,0.006129
1.57200,-0.009251,-0.004556,0.003053
1.57300,-0.022689,0.006615,-0.000509
1.57400,-0.048107,-0.000995,-0.005204
1.57500,-0.035155,-0.003261,0.001110
1.57600,-0.019289,0.006776,-0.009575
1.57700,0.016490,0.002405,-0.001804
1.57800,0.039642,0.011633,-0.002290
1.57900,0.021185,0.006615,0.002081
1.58000,0.101810,0.004510,-0.014432
1.58100,0.137751,0.001596,0.001596
1.58200,0.075097,0.005158,-0.013946
1.58300,0.066354,0.003700,-0.010385
1.58400,0.040775,-0.001156,-0.010385
1.58500,0.008072,0.004186,-0.000347
1.58600,0.007910,0.002567,-0.006823
1.58700,-0.082105,0.002729,-0.003261
1.58800,-0.182967,0.006453,-0.007794
1.58900,-0.044869,-0.002614,0.001758
1.59000,0.110067,-0.004880,-0.002128
1.59100,0.039803,0.002891,0.001110
1.59200,0.059393,-0.001966,0.000301
1.59300,0.013090,-0.005528,0.005967
1.59400,-0.010061,-0.004394,0.015033
1.59500,-0.006337,-0.013946,-0.003747
1.59600,0.012605,-0.001966,0.020214
1.59700,0.047898,-0.002128,-0.002128
1.59800,0.030090,-0.002937,-0.000023
1.59900,0.035918,0.006938,-0.000185
1.60000,-0.054259,0.009853,-0.003909
1.60100,-0.128731,0.009529,-0.006175
1.60200,-0.080972,0.005158,-0.002290
1.60300,0.067326,0.000139,-0.005690
1.60400,0.095496,0.001434,0.002405
1.60500,0.035756,0.009205,0.000948
1.60600,0.031061,-0.003099,-0.025279
1.60700,0.031385,0.001110,-0.013137
1.60800,0.001920,-0.002290,-0.014594
1.60900,-0.037259,-0.001966,0.001596
1.61000,-0.024308,-0.003585,0.002891
1.61100,0.001596,-0.002128,-0.003585
1.61200,-0.025603,-0.005366,0.005967
1.61300,-0.085181,-0.004718,0.018271
1.61400,-0.083886,-0.002937,-0.006175
1.61500,-0.024631,-0.005042,-0.005690
1.61600,-0.027222,-0.001318,-0.008280
1.61700,-0.039850,-0.014594,-0.004718
1.61800,-0.053287,-0.001156,-0.011194
1.61900,-0.000347,-0.003099,-0.011842
1.62000,0.089020,-0.005366,0.002567
1.62100,0.082382,-0.007309,-0.006013
1.62200,0.073478,-0.006499,0.000624
1.62300,0.098086,-0.002290,-0.005204
1.62400,0.225985,-0.002452,-0.004880
1.62500,0.148436,0.007262,-0.012004
1.62600,-0.006823,0.003053,-0.012327
1.62700,0.100515,-0.005851,-0.001804
1.62800,0.108286,-0.001156,-0.013623
1.62900,0.003862,-0.003747,-0.020746
1.63000,-0.028355,-0.004394,-0.015080
1.63100,-0.125979,-0.011032,-0.020260
1.63200,-0.200128,-0.004394,-0.001156
1.63300,-0.006985,-0.007632,0.002405
1.63400,0.028633,-0.010546,-0.001804
1.63500,-0.053287,-0.004556,0.008234
1.63600,-0.137150,-0.018803,0.008881
1.63700,-0.119665,-0.001804,-0.001480
1.63800,-0.041469,-0.012165,0.002243
1.63900,-0.102990,-0.019289,0.003539
1.64000,-0.115779,-0.017184,0.016652
1.64100,-0.183128,-0.008766,0.004186
1.64200,-0.141035,-0.010870,-0.000023
1.64300,-0.101047,-0.022203,-0.011680
1.64400,-0.076277,-0.008604,0.001596
1.64500,-0.012004,-0.004233,-0.018803
1.64600,-0.035155,-0.010708,0.002405
1.64700,0.040775,-0.024308,-0.005528
1.64800,0.245088,-0.035155,-0.011518
1.64900,0.206233,-0.046164,-0.004556
1.65000,-0.023498,-0.034022,-0.012651
1.65100,-0.080810,0.039480,-0.025279
1.65200,0.036242,0.038184,-0.012813
1.65300,-0.007309,-0.023013,-0.026089
1.65400,-0.023498,-0.000185,-0.009089
1.65500,0.111200,-0.005851,0.004996
1.65600,0.030413,-0.009251,-0.000023
1.65700,0.116219,-0.008280,-0.001480
1.65800,0.088211,-0.008442,-0.022365
1.65900,0.092420,-0.007632,-0.033698
1.66000,0.110067,-0.007470,-0.020260
1.66100,0.014224,-0.004394,-0.001804
1.66200,-0.027384,-0.016699,0.017947
1.66300,-0.034993,0.001920,0.015843
1.66400,0.017624,0.002567,0.015843
1.66500,-0.055878,0.006129,-0.002452
1.66600,0.011957,0.000624,0.007586
1.66700,0.080601,0.007262,0.003539
1.66800,0.070240,0.011148,-0.004394
1.66900,0.041584,0.007586,0.017138
1.67000,-0.005690,-0.001804,0.012443
1.67100,0.042879,-0.012651,0.013738
1.67200,0.025718,-0.007470,0.004348
1.67300,-0.059601,-0.007632,-0.010223
1.67400,0.027014,-0.004233,-0.011518
1.67500,-0.097809,-0.008280,-0.015403
1.67600,-0.120636,-0.002614,-0.015889
1.67700,0.089182,0.008234,-0.023984
1.67800,0.065869,-0.002614,-0.010870
1.67900,0.106019,0.011148,-0.009089
1.68000,0.141798,0.017624,-0.004394
1.68100,0.096467,0.019566,0.007910
1.68200,0.015843,0.019728,0.012767
1.68300,-0.097809,0.020862,0.008557
1.68400,-0.117075,0.002243,-0.011680
1.68500,-0.173900,-0.003423,-0.009413
1.68600,0.107314,-0.007147,0.007100
1.68700,0.123342,-0.006013,0.002243
1.68800,-0.206603,-0.000671,0.007100
1.68900,-0.122417,0.007262,0.015519
1.69000,-0.031269,0.008881,0.007910
1.69100,-0.136988,0.003215,-0.012651
1.69200,-0.096999,0.006776,-0.040821
1.69300,-0.018156,0.025395,-0.023498
1.69400,-0.117075,0.009529,-0.026898
1.69500,0.022319,-0.006499,-0.015241
1.69600,-0.137959,-0.008118,0.002729
1.69700,-0.113351,-0.019775,0.013576
1.69800,0.011471,-0.005366,0.011795
1.69900,-0.207413,-0.003909,-0.002614
1.70000,0.051136,0.001272,-0.004233
1.70100,0.305152,0.002729,-0.027708
1.70200,0.279572,-0.003585,-0.031431
1.70300,0.078982,-0.004233,-0.027222
1.70400,0.042879,-0.003909,0.022642
1.70500,-0.021232,0.001272,0.045470
1.70600,-0.153501,-0.000833,0.060202
1.70700,0.139208,-0.008442,0.056155
1.70800,0.240879,-0.000509,0.045470
1.70900,0.079792,-0.000023,0.022319
1.71000,0.131923,0.008234,0.009853
1.71100,-0.095866,0.007748,0.011957
1.71200,0.001434,-0.005690,0.002567
1.71300,0.084649,0.005967,0.017462
1.71400,-0.169367,0.006776,0.016490
1.71500,-0.041631,-0.003261,-0.010385
1.71600,0.075259,-0.005528,-0.035155
1.71700,0.085135,-0.003909,-0.017022
1.71800,0.014062,-0.006175,0.015519
1.71900,-0.087771,-0.002614,0.011795
1.72000,-0.071743,0.012443,0.007586
1.72100,0.012443,-0.003423,-0.008280
1.72200,-0.039526,-0.000671,-0.004880
1.72300,0.005481,-0.001642,0.005481
1.72400,0.002243,-0.000347,-0.010061
1.72500,-0.020584,0.009367,0.015681
1.72600,-0.055878,0.009205,0.000624
1.72700,-0.058144,-0.011842,0.003862
1.72800,0.067326,-0.001642,-0.013784
1.72900,0.002243,-0.006499,-0.016537
1.73000,0.020052,-0.001156,0.020538
1.73100,0.047574,-0.007632,0.031385
1.73200,0.000624,0.007910,0.052917
1.73300,0.005319,0.011148,0.028794
1.73400,0.006291,0.014062,-0.005528
1.73500,0.005158,0.004834,-0.003909
1.73600,-0.000995,0.005158,-0.005528
1.73700,0.004672,0.021347,0.007748
1.73800,0.003700,0.018433,0.006453
1.73900,-0.091981,0.007100,0.025071
1.74000,-0.127598,0.003539,0.024747
1.74100,0.017462,0.011633,-0.003747
1.74200,-0.021555,0.008881,-0.000185
1.74300,0.049193,0.006291,0.020214
1.74400,0.027823,-0.005528,0.006938
1.74500,-0.002614,-0.009899,0.041908
1.74600,0.005319,-0.019613,0.045308
1.74700,0.001434,-0.021879,0.032356
1.74800,-0.000671,-0.018318,0.012281
1.74900,0.051136,-0.016213,0.007424
1.75000,0.215947,-0.013461,0.018109
1.75100,0.205586,-0.010385,-0.003099
1.75200,0.049517,-0.015080,-0.019289
1.75300,-0.083076,-0.003261,0.003377
1.75400,-0.039040,-0.007147,0.007100
1.75500,0.006453,-0.019775,0.031223
1.75600,0.003215,-0.021070,0.033651
1.75700,0.070240,-0.029488,0.004510
1.75800,0.016328,-0.021394,-0.005851
1.75900,-0.142816,-0.017994,-0.003423
1.76000,-0.196566,-0.007309,0.021995
1.76100,-0.102990,0.001434,0.011471
1.76200,-0.182967,0.014709,-0.003261
1.76300,-0.139740,0.005967,0.002081
1.76400,0.224366,0.007586,0.023776
1.76500,0.124152,0.019081,0.013252
1.76600,0.001110,0.021023,-0.039364
1.76700,-0.074334,0.018433,-0.046002
1.76800,-0.199480,-0.000995,-0.033374
1.76900,-0.080486,0.002891,-0.023498
1.77000,0.003377,0.007748,0.017300
1.77100,0.022480,0.015843,0.035432
1.77200,-0.001318,0.019243,0.025880
1.77300,-0.042602,0.013414,-0.014108
1.77400,-0.065106,0.001272,-0.017832
1.77500,-0.016213,-0.000509,0.006776
1.77600,-0.007794,-0.006985,0.067812
1.77700,-0.047135,-0.011032,0.069269
1.77800,-0.004071,0.005967,0.009529
1.77900,-0.023822,-0.001156,-0.034183
1.78000,-0.204013,0.006938,-0.041469
1.78100,0.016814,-0.000023,-0.031755
1.78200,0.387719,-0.013623,-0.029488
1.78300,0.226308,-0.008927,-0.024146
1.78400,0.286048,0.003215,-0.021717
1.78500,0.028794,-0.000509,-0.015727
1.78600,-0.218584,-0.003261,-0.000995
1.78700,-0.100075,0.005319,-0.020908
1.78800,0.072345,-0.014756,-0.022041
1.78900,-0.014594,-0.008927,0.020700
1.79000,-0.008442,0.003053,0.035594
1.79100,0.185834,-0.009089,0.026852
1.79200,-0.054259,-0.007956,0.005805
1.79300,0.122695,-0.016860,-0.000995
1.79400,0.113143,-0.016699,-0.018156
1.79500,-0.051021,-0.011194,-0.024955
1.79600,0.016976,-0.003261,-0.039364
1.79700,-0.204499,0.013252,-0.016699
1.79800,-0.179081,0.032032,-0.001966
1.79900,0.258688,0.031223,0.014224
1.80000,0.088534,0.027499,-0.027384
1.80100,-0.086152,0.006776,-0.034022
1.80200,0.053888,0.012443,-0.029488
1.80300,-0.045840,0.010176,-0.024470
1.80400,-0.031431,0.001920,-0.046326
1.80500,-0.097971,0.005805,-0.023660
1.80600,-0.005851,0.008395,0.008881
1.80700,-0.021070,0.006776,-0.016537
1.80800,0.011795,0.006129,-0.043250
1.80900,0.046279,0.004996,-0.050373
1.81000,0.026042,-0.004071,-0.034993
1.81100,0.002567,0.005158,0.013576
1.81200,-0.040012,0.006291,0.016328
1.81300,-0.076438,0.016976,-0.003747
1.81400,-0.051830,0.002243,-0.022041
1.81500,0.005481,0.011148,-0.025603
1.81600,-0.011032,0.014871,-0.017508
1.81700,-0.019936,0.007262,-0.004880
1.81800,-0.056039,0.011148,-0.032241
1.81900,0.078659,0.010500,-0.035640
1.82000,-0.006985,-0.001804,-0.020260
1.82100,-0.031107,-0.013461,-0.024955
1.82200,0.012605,-0.010870,-0.015080
1.82300,-0.030622,-0.005042,-0.037421
1.82400,-0.036450,-0.007470,-0.027384
1.82500,-0.055716,0.005319,0.015357
1.82600,-0.028517,-0.000671,0.050165
1.82700,-0.019775,-0.008927,0.005967
1.82800,-0.019127,-0.016699,-0.032241
1.82900,-0.079676,-0.005690,-0.047297
1.83000,-0.030784,-0.001480,-0.057982
1.83100,0.006938,-0.001804,-0.030460
1.83200,-0.005042,0.020214,-0.022851
1.83300,-0.031593,0.014062,-0.023498
1.83400,-0.029165,0.011148,-0.017670
1.83500,-0.024631,0.010176,-0.000509
1.83600,-0.018641,0.012443,-0.012165
1.83700,-0.002937,0.009367,0.021185
1.83800,-0.008280,0.027985,0.015195
1.83900,-0.003585,0.037051,0.021671
1.84000,-0.000185,0.030252,0.018919
1.84100,0.004834,0.010824,0.013900
1.84200,-0.004880,-0.015080,0.006453
1.84300,-0.017346,0.001758,0.004996
1.84400,-0.007956,-0.021070,0.002081
1.84500,-0.006499,-0.030622,-0.009089
1.84600,-0.013784,-0.003423,-0.008766
1.84700,0.001596,0.002567,-0.010223
1.84800,-0.007309,0.011471,-0.019936
1.84900,-0.002937,-0.008118,-0.023660
1.85000,-0.010870,-0.029812,0.003377
1.85100,-0.005042,-0.020908,0.009367
1.85200,0.005643,-0.023984,0.016166
1.85300,-0.006499,0.002567,0.016814
1.85400,0.003539,0.000463,0.019890
1.85500,-0.005366,0.001272,0.019728
1.85600,-0.008442,0.010500,0.010500
1.85700,-0.003747,-0.000995,0.037375
1.85800,-0.007632,-0.000023,0.017785
1.85900,-0.002452,0.033328,0.017785
1.86000,-0.000347,0.008557,0.005643
1.86100,-0.002614,-0.036288,0.014062
1.86200,-0.005851,-0.021879,0.028633
1.86300,-0.006661,-0.012651,0.036080
1.86400,-0.020584,0.012767,0.029766
1.86500,-0.006823,0.003053,0.023776
1.86600,0.000463,-0.001480,0.003700
1.86700,0.007910,-0.020098,-0.000833
1.86800,-0.006661,-0.020908,-0.004071
1.86900,-0.016860,-0.012327,0.011957
1.87000,-0.020746,-0.006823,0.015033
1.87100,-0.006985,-0.000347,0.011148
1.87200,-0.002128,-0.017670,0.005481
1.87300,-0.013137,-0.021879,0.001272
1.87400,-0.004071,0.004996,-0.002614
1.87500,-0.003423,0.011148,-0.004394
1.87600,0.000301,0.013414,0.007910
1.87700,-0.000833,0.022642,0.009691
1.87800,-0.000833,-0.017670,-0.013946
1.87900,-0.007309,0.005158,-0.007632
1.88000,0.003215,0.002243,-0.018803
1.88100,0.004348,-0.035640,-0.001156
1.88200,-0.013784,-0.011518,-0.020584
1.88300,0.005967,-0.007632,-0.010708
1.88400,-0.004233,-0.004880,-0.003585
1.88500,-0.006499,0.018595,0.001272
1.88600,0.001110,0.025880,0.000948
1.88700,0.007100,0.003700,0.003862
1.88800,0.005967,-0.022689,-0.016537
1.88900,0.003862,-0.047135,-0.011842
1.89000,-0.010061,-0.027060,-0.008442
1.89100,-0.007794,-0.007632,-0.004718
1.89200,-0.003099,-0.019936,0.000139
1.89300,0.013252,0.016814,-0.000347
1.89400,-0.005851,0.020700,-0.006337
1.89500,-0.008604,-0.004071,0.003053
1.89600,-0.006985,0.017138,0.014709
1.89700,-0.006499,0.008395,0.005481
1.89800,0.004348,0.016652,-0.012165
1.89900,0.006938,0.031709,-0.009899
1.90000,0.016328,-0.008927,-0.002937
1.90100,-0.003261,-0.015565,0.001110
1.90200,0.012605,-0.022041,-0.017508
1.90300,0.008557,-0.022851,-0.019775
1.90400,0.015195,-0.002452,-0.016699
1.90500,0.015681,0.008234,-0.006661
1.90600,0.009691,0.020862,-0.013623
1.90700,0.021509,0.008072,-0.007956
1.90800,0.024585,-0.023013,-0.014270
1.90900,-0.000347,-0.016051,-0.007632
1.91000,-0.010385,-0.012651,0.001434
1.91100,-0.001318,-0.009575,-0.009575
1.91200,0.014062,-0.012165,0.001758
1.91300,0.009853,-0.037259,0.007262
1.91400,0.012929,-0.046649,0.012443
1.91500,0.014224,-0.037421,0.011471
1.91600,0.004996,-0.064296,0.009529
1.91700,0.006129,-0.064134,0.001920
1.91800,-0.004880,-0.003423,0.001758
1.91900,0.006129,0.044498,0.004996
1.92000,0.004186,0.051622,0.002405
1.92100,0.001434,0.011148,0.008719
1.92200,0.012767,-0.007632,-0.002290
1.92300,0.012281,0.015033,-0.002614
1.92400,0.014709,0.018109,-0.006175
1.92500,0.018109,0.047089,0.005805
1.92600,0.022966,0.055831,0.004672
1.92700,0.020214,0.035108,-0.002290
1.92800,0.015843,0.018595,-0.005851
1.92900,0.009367,-0.003099,-0.005366
1.93000,0.012281,0.042879,-0.011842
1.93100,0.006615,0.014062,-0.010546
1.93200,0.007262,-0.031431,-0.014108
1.93300,0.013900,-0.099913,-0.006013
1.93400,0.011471,-0.084048,-0.006661
1.93500,-0.002290,-0.065429,0.000139
1.93600,-0.003585,-0.112056,-0.000833
1.93700,-0.004233,0.038994,-0.008927
1.93800,-0.012165,0.138075,-0.004880
1.93900,0.012605,-0.051830,0.007424
1.94000,0.000948,0.011795,0.017624
1.94100,0.008719,0.171264,0.017462
1.94200,0.005481,0.007424,0.006615
1.94300,-0.002128,0.004186,0.005643
1.94400,-0.001318,0.032842,0.000463
1.94500,0.001758,0.006615,0.004834
1.94600,0.015033,0.021995,0.000786
1.94700,0.000948,-0.000347,-0.001318
1.94800,0.016814,-0.053773,0.016328
1.94900,-0.004556,-0.112056,0.017947
1.95000,0.008072,-0.151882,0.001920
1.95100,-0.000023,-0.184909,-0.000509
1.95200,0.007100,-0.076277,0.009529
1.95300,-0.008766,0.123504,-0.009737
1.95400,-0.005690,0.225985,-0.001156
1.95500,0.016814,0.100515,-0.002937
1.95600,0.010986,-0.002937,0.013414
1.95700,0.008881,-0.025117,0.014548
1.95800,-0.001480,-0.156092,0.014548
1.95900,-0.006175,-0.183128,0.005805
1.96000,-0.002937,0.026528,-0.000995
1.96100,-0.010061,0.245898,0.006938
1.96200,0.005643,0.023128,0.017462
1.96300,-0.003909,-0.030298,0.008395
1.96400,0.004186,0.006776,0.019890
1.96500,-0.000995,-0.019451,0.003539
1.96600,-0.007309,0.058422,0.013090
1.96700,0.000301,-0.083400,0.011795
1.96800,-0.000347,-0.080972,0.009529
1.96900,0.004186,0.043041,-0.000671
1.97000,0.000948,0.134027,0.002081
1.97100,-0.015080,0.061336,0.000463
1.97200,-0.007147,-0.030136,0.012929
1.97300,-0.000023,-0.053449,0.010338
1.97400,-0.006013,-0.027384,0.014386
1.97500,-0.014594,0.021185,0.012767
1.97600,-0.010061,0.094848,0.013414
1.97700,-0.000833,0.218052,0.011471
1.97800,0.001272,0.111362,0.007100
1.97900,-0.002452,0.062307,0.001272
1.98000,0.008072,0.038508,-0.000995
1.98100,0.000139,-0.009899,0.006938
1.98200,0.002405,-0.112056,0.015519
1.98300,-0.000023,-0.192357,0.004834
1.98400,-0.013137,-0.160301,-0.003585
1.98500,0.008881,-0.136178,-0.011842
1.98600,0.001758,-0.026089,-0.008604
1.98700,0.000139,-0.063325,0.002567
1.98800,-0.009737,-0.129541,-0.000347
1.98900,-0.007632,0.175635,-0.009089
1.99000,0.002405,0.186482,-0.004718
1.99100,0.002081,0.015519,0.002405
1.99200,0.004834,0.126094,-0.006337
1.99300,-0.015403,0.041260,0.001758
1.99400,-0.009413,-0.024308,-0.014432
1.99500,-0.008604,-0.026412,0.009205
1.99600,-0.003423,-0.040983,-0.005690
1.99700,0.001110,-0.045192,-0.010708
1.99800,-0.013461,-0.015889,-0.005204
1.99900,-0.011842,-0.038231,0.004024
2.00000,-0.001642,-0.110922,0.010500
2.00100,0.006615,-0.039850,0.007262
2.00200,0.012443,-0.093276,-0.003909
2.00300,0.018595,-0.210813,-0.002775
2.00400,0.004834,-0.034022,-0.002128
2.00500,-0.022365,0.276335,-0.008442
2.00600,-0.002128,0.222585,0.002891
2.00700,-0.010223,0.037537,0.004186
2.00800,-0.016051,0.068297,0.000786
2.00900,-0.005204,0.033328,0.000948
2.01000,-0.006013,0.048870,0.007910
2.01100,0.002243,-0.002937,0.012281
2.01200,-0.004394,-0.051992,0.017138
2.01300,-0.002937,-0.059277,-0.005528
2.01400,0.001758,0.031385,-0.000347
2.01500,0.011148,0.016490,0.006291
2.01600,-0.002290,-0.099104,0.009529
2.01700,-0.001966,0.104724,0.003700
2.01800,-0.010385,0.143741,0.004510
2.01900,0.011471,0.016976,0.001110
2.02000,0.025071,-0.026089,0.017785
2.02100,0.011148,-0.013299,0.009043
2.02200,-0.005366,-0.053449,0.010986
2.02300,-0.012004,-0.054420,-0.007470
2.02400,0.003539,-0.076762,0.011795
2.02500,0.001596,0.012119,0.009853
2.02600,0.001110,0.015357,0.009691
2.02700,-0.002614,-0.081781,0.022157
2.02800,-0.002128,0.134999,-0.003747
2.02900,-0.005851,0.101486,-0.003099
2.03000,0.021023,0.006453,0.004510
2.03100,-0.013137,0.006453,0.001110
2.03200,-0.006499,0.000948,-0.000995
2.03300,-0.000995,-0.004556,-0.004233
2.03400,-0.017994,-0.005690,-0.015889
2.03500,-0.016860,-0.038555,-0.005690
2.03600,-0.013137,-0.045840,-0.007794
2.03700,-0.012327,0.061174,-0.018318
2.03800,0.001434,0.054050,-0.017346
2.03900,-0.000023,0.023614,-0.017022
2.04000,0.016814,0.050489,0.001596
2.04100,-0.005851,0.092096,-0.004233
2.04200,0.012929,-0.003099,-0.000833
2.04300,-0.000347,-0.176653,-0.018641
2.04400,-0.006013,-0.198832,-0.001156
2.04500,0.005643,-0.150749,-0.009737
2.04600,-0.009413,-0.074334,-0.015565
2.04700,-0.010223,0.054860,-0.015080
2.04800,-0.007470,0.016166,0.002405
2.04900,0.019404,0.028633,-0.001642
2.05000,-0.010223,0.038346,-0.001966
2.05100,0.000624,0.017138,-0.003585
2.05200,0.009853,0.012929,-0.007470
2.05300,0.016328,-0.108656,0.000624
2.05400,0.004834,-0.066563,0.002567
2.05500,-0.028355,0.015357,-0.009737
2.05600,-0.015403,0.099543,-0.005042
2.05700,-0.008280,-0.000671,-0.017994
2.05800,0.000786,-0.084533,-0.007147
2.05900,-0.011194,-0.111246,-0.003585
2.06000,0.000948,-0.114808,0.008719
2.06100,-0.012813,-0.039040,0.002729
2.06200,0.001272,0.118971,-0.008927
2.06300,0.016814,0.015033,-0.001966
2.06400,0.019081,-0.218260,0.001110
2.06500,0.035108,-0.131321,0.004996
2.06600,0.015195,-0.063325,0.002891
2.06700,-0.015727,0.068945,-0.000509
2.06800,-0.029326,-0.014270,0.009691
2.06900,-0.013784,0.109419,-0.001642
2.07000,-0.016051,0.368616,-0.000509
2.07100,-0.013946,0.190529,0.004510
2.07200,0.007748,-0.121446,-0.006175
2.07300,-0.000671,-0.240926,-0.002290
2.07400,0.018595,-0.033698,-0.002128
2.07500,0.019243,0.031709,-0.000833
2.07600,0.017947,0.163978,-0.001642
2.07700,-0.001642,0.207205,-0.001966
2.07800,-0.018803,0.207528,-0.005851
2.07900,-0.018156,0.098410,-0.012975
2.08000,-0.008442,0.006615,0.005158
2.08100,-0.002614,0.185996,0.007424
2.08200,-0.008604,-0.016699,0.006776
2.08300,0.000786,-0.050535,-0.001966
2.08400,-0.000023,-0.001966,-0.002452
2.08500,0.001920,0.005643,-0.005528
2.08600,-0.001642,-0.011518,0.001434
2.08700,0.014224,-0.032726,-0.007632
2.08800,-0.000995,-0.019613,0.007748
2.08900,-0.015403,-0.031107,0.009043
2.09000,0.000624,0.100191,0.018271
2.09100,-0.003747,0.121076,0.015519
2.09200,0.006615,0.008395,0.028471
2.09300,0.026366,-0.141521,0.028956
2.09400,0.011633,-0.252096,0.025233
2.09500,-0.008280,-0.282695,-0.004233
2.09600,-0.019289,-0.192680,-0.005204
2.09700,-0.027060,0.067488,0.014224
2.09800,-0.001480,-0.079838,0.010014
2.09900,-0.003747,-0.341140,0.014709
2.10000,-0.005042,-0.269258,-0.000833
2.10100,0.002891,-0.349396,0.033975
2.10200,-0.008927,0.099220,0.018433
2.10300,0.008234,0.504771,0.010500
2.10400,-0.002937,0.086430,0.000463
2.10500,-0.018479,0.076878,0.006938
2.10600,-0.020260,0.285725,0.002243
2.10700,0.004024,0.110876,-0.003423
2.10800,0.002891,0.046927,-0.008766
2.10900,0.020538,0.047898,0.000948
2.11000,0.022642,0.053241,-0.011680
2.11100,0.010662,-0.108980,0.001758
2.11200,0.015357,-0.145892,-0.006823
2.11300,-0.008927,0.062955,0.014548
2.11400,-0.015241,0.131761,0.011795
2.11500,0.005805,0.145360,0.014871
2.11600,-0.005528,0.245898,0.010500
2.11700,0.003862,0.116866,-0.018803
2.11800,0.005805,-0.094733,0.003539
2.11900,0.008719,-0.043897,-0.002290
2.12000,-0.008442,-0.057335,0.000624
2.12100,-0.030784,-0.007470,-0.010223
2.12200,0.015519,-0.122093,-0.003909
2.12300,0.004672,-0.248535,-0.005204
2.12400,-0.039688,-0.223603,-0.000995
2.12500,-0.051506,0.063602,0.004510
2.12600,-0.036450,0.268402,0.013090
2.12700,-0.003261,0.101162,0.005481
2.12800,0.019566,-0.074172,0.016652
2.12900,0.037537,-0.160139,0.018433
2.13000,0.025233,-0.235745,0.008557
2.13100,-0.007632,-0.376757,0.007910
2.13200,-0.037098,-0.093438,0.005643
2.13300,-0.028679,0.241041,0.001920
2.13400,0.013900,0.208176,0.002891
2.13500,0.015357,0.243146,0.000786
2.13600,0.011310,0.065869,0.009853
2.13700,0.000463,-0.124360,-0.007147
2.13800,0.011795,0.026204,0.001272
2.13900,0.002567,0.031061,-0.005204
2.14000,-0.012975,0.248488,0.013252
2.14100,-0.011842,-0.116103,0.011795
2.14200,0.006129,-0.753168,0.001110
2.14300,0.000624,-0.810641,0.006776
2.14400,-0.020908,-0.641782,0.017947
2.14500,-0.048916,0.280706,0.004672
2.14600,-0.018479,0.969577,0.008557
2.14700,0.022966,0.537474,-0.008766
2.14800,0.021185,0.374120,-0.002452
2.14900,0.019890,0.343522,-0.024146
2.15000,0.014871,0.134351,-0.047783
2.15100,0.026528,0.055345,-0.052963
2.15200,0.014709,-0.257601,-0.027222
2.15300,0.009043,-0.317503,-0.017022
2.15400,-0.029974,-0.300180,0.004348
2.15500,-0.036288,0.111686,0.001434
2.15600,-0.023174,0.352588,0.037375
2.15700,-0.003747,0.125285,0.022319
2.15800,0.005158,0.254964,0.011471
2.15900,-0.012327,0.091610,0.025880
2.16000,0.021671,-0.086962,0.014224
2.16100,0.004996,0.066678,0.004024
2.16200,0.032356,-0.030784,0.013090
2.16300,0.010014,-0.001156,0.002081
2.16400,-0.008604,-0.069963,0.006129
2.16500,-0.007147,-0.039526,-0.006175
2.16600,0.007262,-0.033050,0.001110
2.16700,0.014709,-0.008766,-0.003261
2.16800,0.009205,-0.001318,-0.003585
2.16900,0.013414,-0.213565,0.001272
2.17000,0.010986,-0.184909,0.003700
2.17100,-0.007794,-0.197537,0.011957
2.17200,-0.029812,-0.102666,0.004024
2.17300,-0.021879,-0.030460,-0.001804
2.17400,-0.009737,-0.225060,0.001272
2.17500,0.026690,-0.266829,0.005481
2.17600,0.011633,-0.265210,0.000948
2.17700,-0.018318,-0.362348,0.009529
2.17800,-0.040335,0.047251,-0.007147
2.17900,-0.042440,0.178063,0.000786
2.18000,-0.026089,0.283944,0.007100
2.18100,-0.004556,0.506714,-0.007794
2.18200,-0.012489,0.088858,-0.000347
2.18300,-0.003099,-0.088419,-0.002775
2.18400,-0.002290,-0.243192,-0.002452
2.18500,-0.005366,0.226956,-0.007309
2.18600,0.004510,0.392414,0.003215
2.18700,0.002729,0.067973,-0.008280
2.18800,0.033004,0.095172,0.006776
2.18900,0.035594,0.147627,-0.007309
2.19000,0.037699,0.064088,0.001758
2.19100,0.020862,-0.052478,0.013900
2.19200,-0.013299,-0.069963,-0.002290
2.19300,-0.049240,-0.123874,-0.002937
2.19400,-0.030136,-0.108818,0.002567
2.19500,-0.008280,-0.049240,0.009043
2.19600,0.007262,0.232946,0.005967
2.19700,0.026690,0.181139,-0.000347
2.19800,-0.008118,-0.025279,0.009205
2.19900,-0.015403,-0.024308,0.003377
2.20000,-0.035155,-0.070610,0.006615
2.20100,-0.022689,-0.013299,0.012119
2.20200,0.002243,0.013738,-0.015565
2.20300,0.006129,-0.019936,0.013576
2.20400,0.017624,-0.059439,0.031385
2.20500,0.013738,-0.030945,0.004834
2.20600,0.023776,0.021995,-0.036288
2.20700,0.025880,-0.001966,-0.050859
2.20800,0.019081,-0.004394,-0.054420
2.20900,0.015843,-0.037098,-0.037098
2.21000,-0.017670,-0.035317,-0.034993
2.21100,-0.030784,-0.012165,-0.014108
2.21200,-0.025927,-0.044707,-0.018965
2.21300,-0.027384,-0.037259,0.003700
2.21400,-0.035640,-0.035317,-0.004071
2.21500,-0.008927,-0.018803,0.006129
2.21600,0.001758,-0.010223,0.022642
2.21700,-0.014108,0.007424,0.073640
2.21800,-0.027708,0.006453,0.103591
2.21900,-0.012327,-0.055878,0.060041
2.22000,0.023776,-0.075953,0.021509
2.22100,0.009691,-0.056687,-0.019127
2.22200,-0.013946,-0.003261,-0.020260
2.22300,-0.000671,0.098896,-0.035479
2.22400,-0.009413,0.103591,-0.024631
2.22500,-0.012813,0.027499,-0.018479
2.22600,0.002729,-0.022365,-0.015241
2.22700,0.027175,-0.086314,-0.003585
2.22800,0.030737,-0.142654,-0.012165
2.22900,0.009205,-0.069963,-0.012813
2.23000,0.002405,0.089991,-0.067372
2.23100,0.000624,0.080116,-0.074658
2.23200,-0.024631,-0.013623,-0.026412
2.23300,-0.025927,-0.026250,0.041584
2.23400,-0.023013,-0.010870,0.057612
2.23500,-0.015565,-0.012975,0.015357
2.23600,0.022157,0.008395,0.013252
2.23700,0.038023,0.011310,0.013414
2.23800,0.055831,-0.008927,0.004186
2.23900,0.039965,-0.045516,-0.047297
2.24000,-0.010870,-0.083076,-0.056363
2.24100,-0.041954,-0.057173,-0.060411
2.24200,-0.013461,0.010986,-0.040335
2.24300,-0.010870,0.010338,-0.007632
2.24400,-0.018803,-0.008927,0.034785
2.24500,0.001596,-0.006337,0.039803
2.24600,-0.001804,0.008072,0.053403
2.24700,0.000948,0.033975,0.054212
2.24800,-0.007632,-0.000833,0.030252
2.24900,0.008719,-0.005366,0.019404
2.25000,0.004672,0.000463,0.000301
2.25100,0.017785,0.048384,-0.029326
2.25200,0.026690,0.072345,-0.021070
2.25300,-0.000833,-0.008766,-0.030136
2.25400,-0.002128,-0.088904,-0.001480
2.25500,-0.028193,-0.031755,0.005158
2.25600,-0.030945,-0.001318,0.011310
2.25700,0.010338,-0.043088,0.023614
2.25800,-0.008442,0.028309,0.028633
2.25900,0.028471,0.091772,0.038023
2.26000,0.005805,0.039318,0.033328
2.26100,-0.015080,-0.003261,0.008557
2.26200,-0.005851,-0.033860,-0.001318
2.26300,-0.005366,-0.034507,0.004996
2.26400,0.001434,-0.012165,0.010338
2.26500,-0.002452,-0.007794,0.009043
2.26600,0.032194,0.000948,0.010662
2.26700,0.015033,-0.002775,0.004510
2.26800,0.018271,-0.008604,0.011471
2.26900,-0.014756,-0.014108,0.010500
2.27000,-0.002775,-0.008118,0.003539
2.27100,0.005319,0.006453,0.015357
2.27200,-0.001480,-0.002290,0.002081
2.27300,0.022157,-0.002290,-0.000185
2.27400,0.003215,-0.000023,-0.003423
2.27500,0.005805,0.037861,-0.004718
2.27600,-0.000671,0.025395,-0.008280
2.27700,0.015681,0.006938,-0.003099
2.27800,0.001434,0.006776,-0.007956
2.27900,0.009529,0.009043,-0.005042
2.28000,-0.002290,0.003862,-0.000671
2.28100,0.002567,0.017138,-0.011356
2.28200,0.013576,0.017300,0.003862
2.28300,-0.004556,0.014386,-0.018156
2.28400,0.002081,0.011148,-0.010385
2.28500,0.008881,0.010176,-0.018156
2.28600,0.012605,0.000301,-0.015403
2.28700,-0.002614,0.000301,-0.016213
2.28800,0.011471,0.000624,-0.011194
2.28900,0.008072,0.012443,-0.016375
2.29000,0.004186,-0.003099,-0.009737
2.29100,0.023614,0.001920,0.002081
2.29200,-0.002775,-0.003585,-0.025603
2.29300,-0.001966,-0.007956,-0.012813
2.29400,0.001596,-0.004880,-0.016213
2.29500,-0.000185,-0.004233,-0.013137
2.29600,-0.018803,-0.007632,0.004834
2.29700,0.003862,0.003215,0.014224
2.29800,-0.008927,-0.005528,0.004996
2.29900,-0.003099,0.000139,0.008395
2.30000,0.006776,0.012929,0.010824
2.30100,-0.006661,-0.001156,0.013576
2.30200,-0.005528,0.000463,0.009691
2.30300,0.000948,0.003377,0.005643
2.30400,0.017624,0.001272,0.000624
2.30500,0.009043,-0.003909,0.001110
2.30600,0.013738,-0.008604,0.000139
2.30700,0.003215,-0.010061,0.003377
2.30800,0.000786,-0.003099,-0.024146
2.30900,-0.003585,0.000786,-0.020908
2.31000,-0.001966,0.004348,-0.035964
2.31100,-0.004071,-0.005366,-0.041307
2.31200,-0.006823,-0.005528,-0.008442
2.31300,-0.010061,0.003215,0.026042
2.31400,-0.012651,0.008072,0.083030
2.31500,0.006615,0.010662,0.033975
2.31600,-0.016860,0.000624,-0.022041
2.31700,-0.002452,0.000624,-0.085828
2.31800,-0.009089,-0.002614,-0.132779
2.31900,-0.006499,0.005805,-0.174548
2.32000,0.004348,-0.005851,-0.130026
2.32100,-0.001642,-0.009251,-0.061058
2.32200,0.007748,-0.002452,-0.000185
2.32300,-0.008927,0.013252,0.112981
2.32400,-0.005042,-0.004071,0.183082
2.32500,0.009367,0.003862,0.114762
2.32600,0.014548,0.000624,0.075583
2.32700,0.005158,-0.000347,0.047574
2.32800,0.019404,-0.005204,0.056641
2.32900,0.003377,0.001596,0.084487
2.33000,-0.010223,-0.006175,0.086592
2.33100,0.000301,-0.003585,0.032518
2.33200,0.010824,-0.000671,-0.032241
2.33300,-0.018479,-0.006823,-0.055068
2.33400,0.013900,0.000786,-0.025603
2.33500,-0.015241,0.010824,-0.036288
2.33600,-0.013137,0.006291,-0.028517
2.33700,-0.006337,-0.009089,-0.116265
2.33800,-0.013623,0.000139,-0.148321
2.33900,0.016166,0.002891,-0.132131
2.34000,-0.001318,-0.000347,-0.113351
2.34100,0.006129,-0.005042,-0.039688
2.34200,0.001110,-0.005204,-0.043088
2.34300,0.018433,0.005805,-0.042602
2.34400,0.012281,-0.000833,-0.014432
2.34500,0.011471,-0.001156,0.023776
2.34600,0.016166,-0.017508,0.052917
2.34700,0.022480,-0.006823,0.074773
2.34800,0.000786,-0.004394,0.090963
2.34900,0.013090,-0.008280,0.093229
2.35000,0.008072,0.006615,0.078821
2.35100,0.000786,-0.005851,0.033489
2.35200,-0.011194,-0.007470,0.032842
2.35300,-0.008766,0.003700,0.039965
2.35400,-0.012004,0.001758,0.030090
2.35500,-0.011518,0.000948,0.039642
2.35600,0.002567,-0.004880,0.047413
2.35700,-0.001966,0.003862,0.061821
2.35800,-0.005042,0.010014,0.063440
2.35900,-0.060734,-0.007956,0.061174
2.36000,-0.061868,0.003539,0.050165
2.36100,-0.032241,0.005643,0.029766
2.36200,-0.007470,-0.000347,0.016976
2.36300,-0.034507,0.003053,-0.033698
2.36400,0.018271,-0.005204,-0.098456
2.36500,0.068459,0.001596,-0.132779
2.36600,0.104724,0.004510,-0.064782
2.36700,0.209309,0.006938,-0.014594
2.36800,0.191339,0.019890,0.026690
2.36900,0.012281,0.016328,0.038994
2.37000,-0.049240,0.016005,0.071859
2.37100,0.003700,0.015195,0.057126
2.37200,-0.033536,0.020538,0.026042
2.37300,-0.078219,0.005481,0.008557
2.37400,-0.091333,-0.003909,-0.020260
2.37500,-0.010385,0.003215,-0.064944
2.37600,0.016166,-0.008280,-0.069963
2.37700,0.028471,-0.013623,-0.102990
2.37800,0.044498,0.000301,-0.094895
2.37900,-0.015565,-0.006661,-0.023174
2.38000,0.020700,-0.005204,0.020376
2.38100,0.031870,-0.008118,0.086592
2.38200,-0.069315,0.005481,0.098734
2.38300,-0.138283,0.006453,0.103267
2.38400,-0.084371,0.010986,0.083030
2.38500,-0.098133,0.011957,0.069107
2.38600,-0.057820,0.009367,0.014224
2.38700,0.070078,0.003215,-0.019775
2.38800,-0.061544,0.010338,0.013252
2.38900,-0.120636,0.006776,0.002081
2.39000,-0.013784,-0.000671,-0.002937
2.39100,-0.113513,0.004672,0.014709
2.39200,-0.145083,0.003862,-0.011194
2.39300,0.024423,-0.007956,0.006453
2.39400,0.030899,-0.023660,-0.012165
2.39500,-0.023013,-0.023174,0.009367
2.39600,0.017300,-0.009251,-0.005690
2.39700,0.032194,-0.005690,0.003053
2.39800,0.029766,-0.000833,-0.010870
2.39900,-0.009089,-0.010708,0.002729
2.40000,-0.079676,-0.012975,-0.004556
2.40100,-0.075953,-0.006823,-0.002290
2.40200,-0.007794,0.006615,-0.004718
2.40300,0.028147,-0.005204,-0.014756
2.40400,0.016814,0.015195,-0.005851
2.40500,0.015843,0.020700,0.000139
2.40600,0.071697,0.012605,-0.006985
2.40700,0.135808,0.002891,-0.016051
2.40800,0.082382,0.002891,-0.011518
2.40900,-0.009899,0.005158,-0.023013
2.41000,-0.057820,-0.008766,-0.013623
2.41100,0.007262,-0.004556,-0.018803
2.41200,-0.024146,-0.000023,-0.023013
2.41300,-0.043735,0.003862,-0.012165
2.41400,0.032356,0.009853,-0.010061
2.41500,0.123018,0.003700,-0.019775
2.41600,0.109257,0.005158,-0.015565
2.41700,0.103105,-0.002937,-0.002775
2.41800,0.129818,0.003053,0.006129
2.41900,0.084811,-0.001318,-0.009413
2.42000,0.074449,0.007100,0.009529
2.42100,-0.039526,0.013900,0.002891
2.42200,-0.091171,0.012929,-0.020746
2.42300,-0.093923,0.019890,-0.002128
2.42400,-0.142007,0.022319,-0.013137
2.42500,-0.051506,0.005643,-0.012489
2.42600,0.029928,-0.000185,-0.001318
2.42700,0.027337,0.010500,-0.008442
2.42800,0.093391,0.005967,-0.016537
2.42900,0.038023,0.003539,-0.006175
2.43000,-0.024955,0.012119,-0.014594
2.43100,0.022157,-0.002937,-0.008927
2.43200,-0.036936,0.009043,-0.008442
2.43300,-0.124846,-0.002775,0.001110
2.43400,-0.048916,-0.002128,0.013900
2.43500,-0.090685,0.011633,-0.000995
2.43600,-0.074172,0.011957,-0.000347
2.43700,0.036889,0.017462,0.002567
2.43800,0.012443,0.025556,0.000301
2.43900,0.037537,0.028309,-0.002290
2.44000,-0.094085,0.019890,-0.010870
2.44100,-0.151720,0.018757,0.002891
2.44200,-0.015727,0.024261,0.000301
2.44300,-0.000509,0.013576,-0.009251
2.44400,-0.002290,0.014709,-0.010061
2.44500,-0.008118,0.013576,-0.010223
2.44600,-0.026412,0.009367,-0.003747
2.44700,0.005967,0.010176,-0.000185
2.44800,-0.022527,0.009529,-0.000833
2.44900,-0.023174,0.004996,0.006615
2.45000,-0.035802,0.011795,-0.000023
2.45100,0.001110,0.012605,0.007424
2.45200,0.070402,0.012767,0.000139
2.45300,0.084001,0.008719,0.002405
2.45400,0.095172,0.001596,0.003862
2.45500,0.084163,0.012281,0.009205
2.45600,-0.015241,0.012443,0.015519
2.45700,-0.077572,0.003053,0.001434
2.45800,0.018271,0.010176,-0.006499
2.45900,-0.021717,-0.002290,0.007748
2.46000,-0.075629,-0.000023,0.008881
2.46100,-0.073201,0.002729,0.005481
2.46200,-0.119665,0.005319,-0.000509
2.46300,-0.094247,0.011148,-0.008604
2.46400,0.039803,-0.001318,-0.001966
2.46500,0.037375,-0.000185,-0.010546
2.46600,-0.040497,-0.000347,0.001110
2.46700,0.000948,-0.003423,0.007910
2.46800,-0.039526,-0.003261,-0.000833
2.46900,-0.001642,-0.005528,0.006129
2.47000,0.010986,0.004186,-0.002614
2.47100,0.016976,0.007910,0.010824
2.47200,0.153779,-0.002290,0.021833
2.47300,0.216595,-0.000671,0.000301
2.47400,0.092744,-0.011518,0.011148
2.47500,0.056317,-0.000995,0.001596
2.47600,-0.024470,0.000139,0.011310
2.47700,-0.089714,-0.009413,-0.011518
2.47800,-0.023498,-0.001318,-0.003585
2.47900,-0.021232,-0.009089,0.005643
2.48000,0.023128,-0.013784,0.003700
2.48100,0.000463,-0.006823,0.014386
2.48200,0.005643,-0.000671,0.013252
2.48300,-0.007794,-0.002452,0.003862
2.48400,-0.051021,0.000301,0.012443
2.48500,-0.042926,-0.000833,-0.003585
2.48600,0.000786,-0.003909,0.004186
2.48700,0.012119,-0.008280,-0.002937
2.48800,-0.011518,-0.012327,0.003700
2.48900,-0.003099,-0.011194,0.011148
2.49000,0.001758,-0.002452,0.011310
2.49100,-0.005851,-0.001156,0.011957
2.49200,-0.008118,-0.004394,0.007586
2.49300,-0.005204,-0.013137,0.003215
2.49400,-0.022041,-0.000671,0.004348
2.49500,-0.018156,0.002567,0.003539
2.49600,-0.023013,-0.006985,0.012767
2.49700,-0.034507,-0.013299,-0.001156
2.49800,-0.008927,-0.002290,-0.004718
2.49900,0.036727,-0.004394,0.008234
2.50000,0.050489,-0.008766,0.006938
2.50100,0.011957,0.001272,0.003539
2.50200,0.025556,-0.007794,-0.000833
2.50300,0.014548,-0.002614,-0.008118
2.50400,0.014386,-0.014756,0.000463
2.50500,-0.006985,-0.014756,0.010986
2.50600,-0.021070,-0.017670,0.002405
2.50700,-0.043088,-0.020098,0.006453
2.50800,-0.038393,-0.013137,0.006615
2.50900,0.119942,-0.019613,0.003539
2.51000,-0.004718,-0.008766,-0.007309
2.51100,-0.083238,-0.005528,0.008719
2.51200,0.063117,-0.009899,0.007424
2.51300,0.055184,-0.019613,0.007100
2.51400,0.008072,-0.019127,0.002729
2.51500,-0.012813,-0.017994,0.006938
2.51600,0.010662,-0.013137,0.009205
2.51700,-0.038393,-0.007470,0.004024
2.51800,-0.034993,-0.006823,0.002567
2.51900,-0.038878,-0.010870,0.004672
2.52000,-0.013137,-0.017022,0.005481
2.52100,-0.018479,-0.015565,0.000463
2.52200,-0.035964,-0.011842,0.008395
2.52300,-0.014108,-0.006661,0.004996
2.52400,-0.004071,-0.016537,0.001272
2.52500,0.010824,-0.018965,-0.007794
2.52600,0.007910,-0.009089,-0.000671
2.52700,0.009205,-0.005366,0.000948
2.52800,0.000301,-0.010708,-0.000347
2.52900,-0.006499,-0.014594,0.024909
2.53000,-0.008118,-0.015727,0.010014
2.53100,-0.013299,-0.015241,0.010662
2.53200,-0.013461,-0.011356,-0.001318
2.53300,0.002891,-0.008280,0.002567
2.53400,0.009691,-0.016213,0.007424
2.53500,0.018433,-0.013946,0.000301
2.53600,0.014548,-0.011680,0.015033
2.53700,0.014871,-0.003261,0.003700
2.53800,0.009853,-0.010870,-0.001966
2.53900,0.010662,-0.011194,0.004510
2.54000,0.001272,-0.009413,-0.007147
2.54100,-0.062030,-0.003423,0.001434
2.54200,-0.072877,-0.005851,-0.000023
2.54300,-0.017832,-0.017346,-0.003261
2.54400,0.023452,-0.006985,-0.000023
2.54500,0.035594,-0.003423,0.001434
2.54600,0.041908,-0.003909,-0.000833
2.54700,0.018271,-0.009575,0.003700
2.54800,-0.034507,-0.011194,0.007748
2.54900,-0.052478,-0.012489,-0.001966
2.55000,-0.042440,0.000948,0.010986
2.55100,-0.037259,-0.010870,0.009205
2.55200,-0.068344,-0.017994,0.000786
2.55300,-0.044059,-0.010870,0.001110
2.55400,-0.029974,-0.001804,-0.008118
2.55500,-0.036936,-0.007794,0.008072
2.55600,-0.023660,-0.005690,0.009529
2.55700,-0.029488,-0.001804,0.007586
2.55800,-0.006337,-0.005366,0.005805
2.55900,-0.025927,-0.003261,-0.003585
2.56000,-0.012165,-0.004071,0.010824
2.56100,-0.003909,-0.002128,0.002567
2.56200,-0.017832,-0.001804,0.011310
2.56300,-0.003909,0.000624,0.010824
2.56400,-0.020746,-0.006499,0.008234
2.56500,-0.002452,-0.013137,0.003862
2.56600,-0.001642,-0.019775,-0.012165
2.56700,0.016328,-0.017184,0.008234
2.56800,0.010176,-0.008604,-0.004394
2.56900,0.012443,-0.013137,-0.008118
2.57000,0.013090,-0.015889,-0.003423
2.57100,0.022480,0.009367,-0.002128
2.57200,0.031061,0.007424,-0.006013
2.57300,0.019566,0.002243,-0.006013
2.57400,-0.021232,0.000624,-0.001966
2.57500,-0.059277,-0.000185,0.003215
2.57600,-0.027546,0.008395,-0.003099
2.57700,0.025395,0.010662,0.001272
2.57800,0.024099,0.000139,-0.000023
2.57900,0.022966,0.000463,0.010014
2.58000,0.028794,0.002567,-0.008118
2.58100,0.026690,0.010338,0.004510
2.58200,0.033489,0.002405,-0.005851
2.58300,0.002243,0.001758,-0.011356
2.58400,-0.054097,-0.007632,-0.009899
2.58500,-0.004556,-0.002937,-0.001804
2.58600,0.038994,0.010176,0.002729
2.58700,-0.017508,-0.004718,0.001110
2.58800,-0.044059,-0.006013,-0.008604
2.58900,-0.057658,0.006129,-0.000185
2.59000,-0.018641,0.007748,-0.004556
2.59100,-0.005690,0.008395,0.005805
2.59200,0.030413,-0.001156,-0.002452
2.59300,0.042879,-0.006013,-0.001642
2.59400,0.066516,-0.003261,-0.007794
2.59500,0.079468,-0.000509,-0.003261
2.59600,0.013576,-0.002290,0.002405
2.59700,-0.024955,0.001272,0.004672
2.59800,-0.044059,0.003539,-0.006985
2.59900,0.062793,0.012929,0.013576
2.60000,0.109581,0.003215,0.001272
2.60100,0.010986,0.004834,-0.009413
2.60200,-0.067210,0.011957,-0.000347
2.60300,-0.063811,0.000948,0.013414
2.60400,0.003053,0.010014,-0.000995
2.60500,-0.030136,0.010662,-0.013299
2.60600,-0.040983,-0.001318,0.005643
2.60700,-0.066725,-0.004394,0.001758
2.60800,-0.030784,-0.002937,0.000301
2.60900,-0.018803,0.004996,-0.009251
2.61000,-0.039526,-0.002128,0.006938
2.61100,-0.015727,-0.000833,-0.005851
2.61200,-0.057011,-0.005042,-0.008604
2.61300,-0.004556,-0.002614,0.003053
2.61400,-0.008927,0.000786,-0.009413
2.61500,-0.011032,-0.012327,0.003053
2.61600,-0.006013,-0.002128,-0.003099
2.61700,0.010014,-0.002614,0.004672
2.61800,0.037051,-0.002128,-0.010223
2.61900,-0.018156,0.004510,-0.005204
2.62000,-0.050373,-0.006823,-0.001966
2.62100,-0.034669,0.002405,-0.006337
2.62200,0.067650,0.000463,-0.002128
2.62300,0.074773,-0.006337,-0.015565
2.62400,0.031223,-0.004394,-0.005528
2.62500,0.047089,0.006129,-0.003747
2.62600,0.006938,0.010824,0.013738
2.62700,-0.093761,0.002891,-0.000185
2.62800,-0.065753,0.011633,0.004834
2.62900,0.181949,0.014386,-0.009575
2.63000,0.148112,-0.000023,0.003539
2.63100,-0.035155,-0.006661,-0.004394
2.63200,0.011795,0.000624,-0.005366
2.63300,0.064412,-0.007794,-0.000671
2.63400,0.051622,-0.007794,0.006291
2.63500,0.052108,-0.010223,0.000301
2.63600,0.043365,-0.001642,-0.004880
2.63700,0.016005,0.000786,0.002081
2.63800,-0.026089,-0.005528,-0.007632
2.63900,-0.089066,-0.009899,-0.019451
2.64000,-0.058306,-0.000995,0.009853
2.64100,-0.026574,0.002891,0.000301
2.64200,-0.015403,-0.002614,-0.012327
2.64300,-0.016051,0.003862,-0.005204
2.64400,-0.024631,0.001272,0.006615
2.64500,0.014386,0.001920,-0.007147
2.64600,0.007910,-0.001156,-0.015403
2.64700,0.019566,0.003377,-0.000995
2.64800,-0.023660,0.000786,-0.010223
2.64900,-0.011032,-0.008766,-0.013784
2.65000,0.001920,0.000786,0.002081
2.65100,0.015195,-0.001318,-0.005042
2.65200,0.013414,-0.009251,0.004672
2.65300,-0.019127,-0.007470,-0.004233
2.65400,-0.002290,0.003539,-0.010385
2.65500,-0.040012,0.003539,-0.006661
2.65600,-0.074981,0.009691,0.003700
2.65700,-0.076762,0.006615,0.006938
2.65800,0.072183,-0.006337,0.001434
2.65900,0.149084,-0.001804,-0.010870
2.66000,0.169159,0.004672,0.003862
2.66100,0.183082,-0.008280,0.000301
2.66200,0.139370,-0.005204,-0.008118
2.66300,0.190205,-0.001318,-0.015241
2.66400,0.112495,0.000624,-0.023498
2.66500,0.109257,0.006291,-0.026574
2.66600,0.056479,0.002405,-0.005366
2.66700,-0.199642,0.015195,-0.014756
2.66800,-0.422412,0.021023,0.003539
2.66900,-0.280752,0.006453,-0.001804
2.67000,0.066678,-0.008766,0.006938
2.67100,0.024747,-0.004556,0.004186
2.67200,0.000301,-0.013137,0.003539
2.67300,-0.008604,-0.009413,0.015681
2.67400,-0.059925,-0.015241,0.013090
2.67500,-0.056363,-0.009737,0.017462
2.67600,-0.050049,-0.019775,-0.004718
2.67700,0.056479,-0.015241,-0.016860
2.67800,0.027661,0.004348,-0.015889
2.67900,-0.075467,0.003377,-0.032241
2.68000,-0.114808,0.001596,-0.022851
2.68100,-0.033698,0.002567,-0.004556
2.68200,0.007910,-0.006013,-0.005528
2.68300,0.047898,-0.010708,0.001272
2.68400,-0.017670,-0.011680,-0.002290
2.68500,-0.002775,-0.002937,0.004186
2.68600,0.085620,-0.006823,0.015357
2.68700,0.063117,-0.007309,-0.002614
2.68800,0.109257,-0.010870,-0.016699
2.68900,0.075421,-0.014270,-0.015565
2.69000,0.110067,-0.008927,-0.016537
2.69100,0.073640,-0.005690,-0.011194
2.69200,-0.070772,-0.006013,0.009205
2.69300,-0.176005,0.000139,0.003539
2.69400,-0.091171,-0.026898,0.006291
2.69500,-0.024631,-0.011518,0.000139
2.69600,-0.090847,-0.009089,0.012605
2.69700,-0.157549,-0.017508,-0.006661
2.69800,-0.143140,-0.005690,-0.009575
2.69900,0.038832,-0.018965,-0.001642
2.70000,-0.013784,-0.010546,0.004186
2.70100,-0.172281,-0.010385,0.007586
2.70200,-0.082429,-0.019613,-0.000509
2.70300,0.280544,0.044660,-0.011356
2.70400,0.202995,0.064088,-0.004233
2.70500,0.084811,0.006291,0.003215
2.70600,0.090801,0.002081,0.011795
2.70700,0.050812,0.004672,0.005481
2.70800,0.113305,-0.009899,-0.018965
2.70900,0.054698,0.010662,-0.020260
2.71000,0.057612,-0.004880,-0.011842
2.71100,0.028471,-0.003423,-0.003909
2.71200,0.048870,0.008557,-0.013299
2.71300,0.060850,0.006291,-0.004233
2.71400,0.041260,-0.005690,-0.001966
2.71500,-0.024793,-0.002775,0.028956
2.71600,-0.002614,-0.001642,0.024909
2.71700,-0.037745,-0.001966,-0.008604
2.71800,-0.024631,-0.003747,-0.019451
2.71900,0.044822,0.001272,-0.021070
2.72000,0.021509,0.007586,-0.022689
2.72100,0.052269,-0.002290,-0.016860
2.72200,0.095334,-0.006337,-0.011032
2.72300,0.187129,-0.008442,0.005967
2.72400,-0.009899,0.010338,-0.009089
2.72500,0.007910,0.014386,-0.010385
2.72600,0.117514,0.018757,-0.026412
2.72700,-0.042926,0.015681,-0.015889
2.72800,-0.291437,0.031385,-0.020746
2.72900,-0.414803,0.012929,-0.011194
2.73000,-0.176491,-0.002614,-0.008118
2.73100,-0.021232,-0.004233,-0.023336
2.73200,0.151512,-0.005528,-0.018479
2.73300,-0.010223,-0.001156,-0.021070
2.73400,-0.139578,-0.010546,0.011795
2.73500,0.047413,-0.001966,0.006938
2.73600,-0.016051,-0.012004,0.007262
2.73700,0.029928,-0.010223,-0.009413
2.73800,0.040289,-0.010223,-0.010546
2.73900,-0.084209,-0.014594,0.005481
2.74000,-0.107037,0.005643,0.030252
2.74100,-0.266181,0.005805,0.055669
2.74200,-0.102990,0.000948,0.058098
2.74300,0.215299,0.000301,0.050651
2.74400,0.008881,-0.002614,0.015519
2.74500,0.106343,0.005967,-0.004556
2.74600,0.047251,0.004024,-0.022365
2.74700,0.008719,0.001920,-0.010870
2.74800,0.016328,-0.005366,-0.008442
2.74900,-0.011356,-0.001318,-0.000185
2.75000,0.069592,-0.010223,0.030413
2.75100,-0.053287,-0.003585,0.026204
2.75200,0.170130,-0.007147,-0.005851
2.75300,0.097924,0.002243,0.013576
2.75400,0.104400,0.006615,0.010014
2.75500,0.131761,0.014062,0.001434
2.75600,-0.105580,0.009205,-0.006985
2.75700,-0.057658,0.015033,-0.008118
2.75800,0.044337,0.001758,-0.000185
2.75900,0.118485,-0.010223,-0.008118
2.76000,-0.020584,-0.002614,0.004024
2.76100,-0.020260,0.005967,0.004510
2.76200,0.057774,0.002891,-0.001480
2.76300,-0.021555,0.007262,0.002891
2.76400,-0.097809,0.000463,0.006938
2.76500,-0.128084,0.003539,0.021995
2.76600,-0.051183,0.000948,0.056641
2.76700,-0.084048,-0.005042,0.054050
2.76800,0.000786,0.009367,0.039156
2.76900,0.115571,0.011957,0.014548
2.77000,0.003053,0.018595,0.005319
2.77100,-0.081619,0.006453,-0.006175
2.77200,-0.007956,0.002081,-0.017508
2.77300,0.068945,0.016490,-0.008118
2.77400,0.068135,0.009205,-0.012165
2.77500,0.143741,0.005805,0.017947
2.77600,0.075097,0.001920,0.025395
2.77700,0.053727,0.015519,0.019566
2.77800,0.064250,0.003215,-0.006823
2.77900,-0.028517,-0.000023,-0.007309
2.78000,-0.116751,0.000301,0.002243
2.78100,-0.082752,-0.002452,0.021671
2.78200,-0.013299,-0.002775,0.026690
2.78300,-0.055878,0.002891,0.027175
2.78400,-0.039364,-0.012004,0.024423
2.78500,-0.019613,-0.012165,0.015681
2.78600,0.011310,-0.002128,0.022804
2.78700,0.007910,-0.016699,0.005643
2.78800,0.017462,-0.004556,0.003862
2.78900,0.017300,-0.009089,0.011310
2.79000,0.003862,-0.019127,0.040451
2.79100,0.046279,-0.011842,0.021347
2.79200,-0.024146,-0.021394,0.009853
2.79300,-0.080486,-0.023984,0.004348
2.79400,-0.022851,-0.025279,-0.026898
2.79500,-0.042278,-0.016860,-0.014108
2.79600,0.165759,-0.000347,0.002405
2.79700,0.225337,-0.002937,0.011795
2.79800,-0.035964,-0.001318,0.009043
2.79900,-0.091495,-0.003747,0.009853
2.80000,0.176606,0.003053,0.013414
2.80100,0.267592,-0.015241,-0.009251
2.80200,-0.023336,-0.007309,0.007100
2.80300,-0.134721,0.001110,-0.012004
2.80400,-0.126950,-0.001642,0.000948
2.80500,-0.016375,-0.005204,-0.001156
2.80600,-0.103475,0.010824,-0.023498
2.80700,-0.220203,0.010500,-0.031269
2.80800,-0.071582,0.008881,-0.021717
2.80900,-0.026574,0.008234,-0.010708
2.81000,-0.045516,0.012929,-0.010870
2.81100,-0.007632,0.019566,-0.007309
2.81200,0.043365,0.011633,-0.014594
2.81300,0.026528,0.010662,-0.002614
2.81400,-0.054259,0.000948,0.029280
2.81500,-0.134397,0.006453,0.018109
2.81600,-0.084209,-0.004718,0.007910
2.81700,0.025556,-0.011194,0.026042
2.81800,0.090963,-0.005204,0.038670
2.81900,0.052108,0.006938,0.025556
2.82000,0.033489,0.004024,-0.011356
2.82100,0.003053,0.009205,-0.015403
2.82200,-0.100075,0.009691,0.002243
2.82300,0.034137,-0.005042,-0.004233
2.82400,0.053403,0.001272,-0.020584
2.82500,0.118647,0.005643,-0.029650
2.82600,0.115247,0.002729,-0.011032
2.82700,-0.073848,-0.010223,-0.010385
2.82800,-0.090847,0.000624,-0.006013
2.82900,-0.160787,0.004510,-0.010061
2.83000,-0.215184,0.010500,0.003700
2.83100,-0.082105,0.011795,0.010500
2.83200,0.068459,-0.012004,0.012929
2.83300,0.131437,-0.007632,-0.014756
2.83400,0.112009,-0.007794,-0.008766
2.83500,0.041260,-0.013784,-0.041793
2.83600,-0.059601,-0.017670,-0.046164
2.83700,-0.175843,-0.007470,-0.019936
2.83800,-0.052154,-0.001156,-0.001156
2.83900,0.114276,0.005643,0.020700
2.84000,0.120266,-0.010385,0.019890
2.84100,0.131599,0.010014,-0.021879
2.84200,0.142932,0.011633,-0.043573
2.84300,0.074287,0.017947,-0.017994
2.84400,-0.012327,0.022804,0.019728
2.84500,-0.065753,0.021023,0.029766
2.84600,0.005319,0.015519,0.004186
2.84700,-0.089066,0.008072,-0.035964
2.84800,0.026528,0.005805,-0.045678
2.84900,0.110552,0.009691,-0.037745
2.85000,-0.021070,0.006615,-0.034993
2.85100,0.015681,-0.004071,0.016814
2.85200,-0.047783,-0.006661,0.021347
2.85300,-0.018803,-0.002775,-0.014594
2.85400,-0.035479,-0.000347,-0.041145
2.85500,-0.018479,-0.002290,-0.040821
2.85600,-0.014918,-0.001318,-0.004071
2.85700,-0.022851,0.005805,0.008072
2.85800,-0.010870,0.001758,0.025880
2.85900,-0.007147,0.007748,0.005643
2.86000,-0.008766,0.002405,0.021023
2.86100,0.001434,-0.002937,0.040127
2.86200,0.014062,0.006291,0.004510
2.86300,-0.003261,0.000786,-0.042116
2.86400,0.007910,-0.000833,-0.077086
2.86500,0.002405,-0.004394,-0.041631
2.86600,-0.012165,-0.002290,-0.056201
2.86700,-0.022365,-0.004071,-0.017508
2.86800,-0.024955,0.001110,-0.016860
2.86900,-0.011194,-0.006013,-0.015565
2.87000,-0.004556,0.002405,-0.020098
2.87100,0.007748,0.011633,-0.038231
2.87200,-0.007309,0.008395,-0.022851
2.87300,-0.017346,-0.011032,0.002243
2.87400,-0.011032,-0.006337,0.021671
2.87500,-0.013623,0.006776,0.025233
2.87600,-0.006985,-0.004880,0.014386
2.87700,-0.015403,-0.000185,-0.024631
2.87800,-0.006013,0.004348,-0.034993
2.87900,-0.017994,0.005967,-0.029165
2.88000,-0.012327,0.012281,-0.028355
2.88100,-0.014918,0.012767,-0.030622
2.88200,-0.005528,0.011633,0.003053
2.88300,0.006938,-0.000185,-0.000671
2.88400,0.002729,0.006615,-0.011680
2.88500,0.003539,-0.000347,-0.018156
2.88600,-0.013946,0.006291,0.008881
2.88700,-0.018803,0.036889,-0.006499
2.88800,-0.020260,0.052917,-0.001480
2.88900,-0.027869,0.027499,-0.010708
2.89000,-0.012327,-0.010708,-0.000671
2.89100,-0.004071,-0.040174,0.015681
2.89200,-0.014918,-0.036288,0.027661
2.89300,-0.016699,-0.020098,0.013414
2.89400,-0.017184,-0.005851,0.022157
2.89500,-0.007956,0.012605,0.045955
2.89600,-0.007956,0.020700,0.028956
2.89700,-0.003423,0.013576,0.024261
2.89800,0.010338,-0.018803,0.014224
2.89900,-0.017832,-0.015241,0.008719
2.90000,-0.019775,-0.022689,0.023776
2.90100,-0.015080,-0.030460,0.028147
2.90200,-0.013299,-0.025279,0.019566
2.90300,-0.015565,-0.012327,-0.009899
2.90400,-0.010061,0.015357,-0.013784
2.90500,-0.020746,0.014224,-0.018641
2.90600,-0.017994,0.015681,-0.015403
2.90700,-0.017184,-0.008442,0.009529
2.90800,-0.023498,-0.022527,0.009367
2.90900,-0.017022,-0.023822,0.035594
2.91000,-0.015889,-0.016537,0.031870
2.91100,-0.010061,-0.010870,-0.014918
2.91200,-0.011356,0.000948,-0.012651
2.91300,-0.004071,-0.003909,-0.010546
2.91400,0.002243,-0.001318,-0.017994
2.91500,0.000624,0.000463,-0.024470
2.91600,0.001596,-0.010546,-0.010546
2.91700,0.004348,-0.031431,0.002405
2.91800,-0.007470,-0.017184,-0.004718
2.91900,-0.018318,0.007910,0.013576
2.92000,-0.008118,0.000624,0.008395
2.92100,-0.011032,0.006453,0.002567
2.92200,-0.001642,-0.002614,-0.013299
2.92300,-0.007147,0.005967,-0.000995
2.92400,-0.010061,0.002567,-0.011842
2.92500,-0.005204,-0.004394,0.011957
2.92600,-0.008927,0.003215,-0.000671
2.92700,-0.002937,-0.001804,0.000948
2.92800,0.006615,-0.020908,-0.004071
2.92900,0.010824,-0.008766,0.016328
2.93000,0.000948,-0.002614,0.006938
2.93100,0.004348,-0.000509,0.012281
2.93200,-0.003909,-0.000995,0.002567
2.93300,0.018271,-0.004880,0.006776
2.93400,-0.010223,-0.006823,0.009853
2.93500,-0.011680,-0.003585,0.005158
2.93600,-0.012975,0.012281,-0.000833
2.93700,-0.016537,0.025071,0.009205
2.93800,0.000139,0.016976,-0.002937
2.93900,-0.009575,0.024423,-0.008766
2.94000,-0.007147,0.009043,-0.009089
2.94100,-0.000347,-0.024955,-0.012975
2.94200,0.003862,-0.024146,-0.010546
2.94300,-0.011518,-0.016860,-0.013299
2.94400,-0.001480,0.005158,-0.017022
2.94500,-0.014108,0.002405,-0.016537
2.94600,0.007262,-0.004233,-0.007956
2.94700,0.001434,-0.011518,-0.002290
2.94800,-0.008604,0.010176,0.013576
2.94900,0.002243,0.027014,0.013900
2.95000,0.001596,0.012281,0.014224
2.95100,0.013414,-0.010546,0.004348
2.95200,0.016652,-0.027222,0.001434
2.95300,0.027337,-0.023660,-0.010385
2.95400,0.010986,-0.028355,-0.011518
2.95500,0.005158,-0.052963,-0.000023
2.95600,0.005158,-0.047135,-0.008118
2.95700,0.000463,0.000301,-0.011680
2.95800,-0.007632,-0.017508,-0.006337
2.95900,0.007586,-0.017670,-0.001804
2.96000,0.016166,0.008395,-0.007309
2.96100,0.003053,-0.014108,-0.014108
2.96200,0.012605,0.041908,-0.006175
2.96300,0.001758,0.024423,0.009367
2.96400,0.007100,-0.024470,0.006776
2.96500,0.009853,0.001596,-0.004880
2.96600,0.007748,0.027175,-0.002937
2.96700,0.016490,0.020214,0.005805
2.96800,0.010014,-0.003099,0.009691
2.96900,0.005805,-0.007147,-0.000347
2.97000,0.005967,-0.015565,-0.001966
2.97100,-0.005528,0.006453,-0.017346
2.97200,0.005643,0.009691,-0.000347
2.97300,0.004024,0.001272,-0.010061
2.97400,-0.000347,0.005158,-0.008118
2.97500,0.008881,0.007910,-0.005851
2.97600,0.005158,0.001920,-0.004880
2.97700,0.010500,-0.012975,-0.000833
2.97800,0.003539,-0.016699,0.003215
2.97900,0.011148,-0.002775,-0.000833
2.98000,0.016490,0.016166,-0.000347
2.98100,0.014709,-0.006175,-0.003585
2.98200,0.010500,-0.059115,-0.004233
2.98300,0.003215,-0.102018,-0.013299
2.98400,0.013090,-0.130350,-0.002290
2.98500,-0.002128,-0.109789,0.016166
2.98600,0.002243,-0.060249,0.008072
2.98700,0.007424,0.061174,0.009691
2.98800,0.005967,0.180815,0.014709
2.98900,-0.009251,0.089020,-0.000671
2.99000,-0.008280,0.083677,0.013576
2.99100,-0.004394,0.103267,0.015519
2.99200,0.006776,0.001434,-0.004880
2.99300,0.014548,0.023128,0.010662
2.99400,0.017138,0.029604,0.002891
2.99500,0.019728,0.041584,0.006453
2.99600,-0.000833,0.023452,0.007100
2.99700,0.005481,0.023290,0.000624
2.99800,0.000139,0.009853,0.007910
2.99900,-0.010061,-0.013623,-0.006661
3.00000,0.002243,-0.014756,0.002243
3.00100,-0.000509,0.001110,0.006453
3.00200,0.006129,-0.000023,0.004348
3.00300,0.010986,-0.068991,0.002243
3.00400,-0.000023,-0.165482,-0.002775
3.00500,-0.012327,-0.196566,0.021671
3.00600,0.029118,-0.233802,0.006291
3.00700,-0.011194,-0.189928,0.013090
3.00800,-0.013137,0.202348,0.011148
3.00900,0.013738,0.290258,-0.017346
3.01000,0.007586,-0.056363,0.009529
3.01100,0.023128,-0.033050,0.003215
3.01200,-0.011518,0.035108,0.002081
3.01300,0.006938,0.102619,0.008719
3.01400,-0.005690,0.137913,0.006615
3.01500,-0.009575,-0.091981,0.007262
3.01600,-0.000995,-0.191871,0.013090
3.01700,0.003539,-0.147025,0.004834
3.01800,-0.006661,0.060850,0.000463
3.01900,0.003215,0.346112,0.000786
3.02000,0.008395,0.213680,0.017300
3.02100,0.014871,0.018109,0.011633
3.02200,0.001110,0.033166,0.010176
3.02300,-0.000995,-0.138607,0.011633
3.02400,0.015519,-0.028679,0.007586
3.02500,0.004996,0.012929,0.009205
3.02600,0.001596,-0.014432,0.012605
3.02700,0.010338,-0.006661,0.011795
3.02800,0.006453,-0.006661,-0.000671
3.02900,0.003700,-0.008442,0.002729
3.03000,-0.006661,-0.009575,0.003215
3.03100,0.011957,-0.136664,0.014062
3.03200,0.004348,-0.155768,0.005805
3.03300,-0.017994,0.001272,-0.000023
3.03400,-0.006661,0.104562,0.006615
3.03500,-0.009413,0.060041,0.007748
3.03600,-0.029326,-0.068667,-0.002452
3.03700,-0.013784,-0.093114,-0.006823
3.03800,0.001758,-0.025441,0.006776
3.03900,-0.000023,0.094525,-0.000995
3.04000,0.005319,0.134675,0.012929
3.04100,0.013414,-0.003747,0.005805
3.04200,0.004348,-0.060087,-0.000671
3.04300,-0.006337,0.045632,0.006453
3.04400,-0.003423,0.182920,-0.013461
3.04500,-0.009737,0.108933,0.007910
3.04600,-0.001642,-0.085181,0.004348
3.04700,-0.002128,0.013738,-0.004071
3.04800,-0.000509,0.061659,-0.009413
3.04900,-0.013623,0.077687,-0.001480
3.05000,-0.012327,0.101162,-0.001480
3.05100,-0.005851,0.019728,0.001920
3.05200,0.003053,-0.068829,0.001920
3.05300,-0.001804,-0.147511,0.004996
3.05400,-0.004071,-0.281400,-0.002775
3.05500,-0.014432,-0.314589,0.001920
3.05600,-0.032726,-0.173253,0.002405
3.05700,-0.015889,-0.064134,-0.011680
3.05800,-0.012327,0.021347,-0.006499
3.05900,-0.004556,0.126580,0.001758
3.06000,0.009043,0.160255,-0.003585
3.06100,0.006129,0.054374,0.013090
3.06200,0.004348,-0.005042,-0.007147
3.06300,-0.002614,0.078821,-0.011194
3.06400,-0.010708,0.244441,-0.008766
3.06500,0.005805,0.133380,-0.005528
3.06600,0.006453,0.092744,0.003377
3.06700,-0.002937,0.097277,0.001434
3.06800,-0.003585,-0.110113,-0.007147
3.06900,0.016814,-0.077086,0.008234
3.07000,-0.000347,-0.020584,-0.007309
3.07100,0.001272,0.071535,0.004834
3.07200,0.006453,0.086915,0.001596
3.07300,-0.014594,0.029118,0.006776
3.07400,-0.029650,-0.099913,-0.008766
3.07500,-0.032241,-0.071743,-0.013299
3.07600,0.000139,0.065059,0.004186
3.07700,0.010014,0.051622,-0.003909
3.07800,0.008719,0.071049,-0.001642
3.07900,0.017624,0.107800,0.014709
3.08000,0.009529,0.057936,-0.002452
3.08100,-0.012651,-0.048754,-0.003423
3.08200,-0.027060,-0.031431,0.000139
3.08300,-0.014594,-0.065106,-0.003747
3.08400,-0.006985,-0.044221,-0.002452
3.08500,0.002891,-0.021394,-0.010870
3.08600,0.001110,-0.024631,0.006129
3.08700,0.013414,-0.037421,-0.019451
3.08800,0.025395,-0.123712,0.005967
3.08900,0.027661,-0.079676,-0.000023
3.09000,0.010662,0.125609,-0.005851
3.09100,-0.010870,0.164950,0.008557
3.09200,-0.026412,-0.002128,0.008395
3.09300,-0.028679,-0.063649,-0.004071
3.09400,-0.013461,-0.157225,0.017138
3.09500,-0.006661,-0.235583,0.005158
3.09600,-0.010061,-0.288038,0.001758
3.09700,-0.003261,-0.260353,0.000139
3.09800,-0.004071,-0.015403,0.013738
3.09900,-0.014432,-0.051992,-0.003261
3.10000,-0.016537,-0.136178,-0.002614
3.10100,-0.003423,0.007424,0.005481
3.10200,-0.014270,0.056479,0.005481
3.10300,-0.024631,0.328789,0.004348
3.10400,-0.008927,0.061012,0.010176
3.10500,0.014548,-0.156901,0.005481
3.10600,0.017462,0.004186,0.004834
3.10700,0.011471,-0.055554,0.005643
3.10800,-0.009251,0.104076,0.005158
3.10900,-0.012489,0.147465,-0.000509
3.11000,0.005158,0.255774,0.001434
3.11100,0.004672,0.096953,0.010176
3.11200,0.004186,0.045955,-0.001318
3.11300,0.009367,0.123666,-0.001642
3.11400,-0.002290,0.089020,-0.006985
3.11500,-0.018479,0.150541,-0.001804
3.11600,-0.013299,0.093229,-0.010385
3.11700,-0.015889,0.140827,0.020700
3.11800,-0.002128,0.126742,0.008395
3.11900,0.002891,0.047413,0.011795
3.12000,-0.004556,0.001596,0.016976
3.12100,-0.008927,-0.091495,0.015843
3.12200,0.021995,-0.204013,-0.002128
3.12300,0.007910,-0.172929,-0.000995
3.12400,-0.013623,-0.059601,-0.005528
3.12500,-0.004718,0.083516,0.016005
3.12600,0.018595,0.004834,0.004348
3.12700,0.013414,-0.258896,-0.006823
3.12800,0.014709,-0.166777,-0.000509
3.12900,0.012605,-0.140873,0.004996
3.13000,-0.015080,-0.186043,0.023290
3.13100,-0.037098,-0.098942,0.012929
3.13200,-0.018318,-0.026250,-0.006499
3.13300,0.004510,0.062145,0.000786
3.13400,0.010662,0.127713,-0.003099
3.13500,0.018919,0.076878,-0.021555
3.13600,0.014386,0.222585,-0.006985
3.13700,0.016490,0.173854,0.012605
3.13800,-0.001966,-0.054582,0.013414
3.13900,-0.013461,0.065383,0.006453
3.14000,-0.014108,-0.076762,0.007262
3.14100,-0.000833,-0.190090,0.004186
3.14200,0.020700,-0.304065,-0.007794
3.14300,0.027337,-0.504979,-0.011356
3.14400,0.029442,-0.412536,-0.000671
3.14500,0.002567,-0.291599,0.003053
3.14600,-0.028517,0.092906,0.007100
3.14700,-0.023822,0.625384,0.000948
3.14800,-0.030298,0.215623,0.005643
3.14900,-0.024793,-0.133750,-0.005528
3.15000,-0.006175,0.267106,0.003862
3.15100,0.000139,0.325389,-0.000185
3.15200,0.015033,0.323285,0.005643
3.15300,-0.014594,0.148274,-0.000347
3.15400,-0.033536,0.010338,0.005158
3.15500,0.001758,0.101000,0.009043
3.15600,0.017462,0.173044,-0.004071
3.15700,0.017624,0.178225,-0.001966
3.15800,0.019890,0.089020,-0.000347
3.15900,-0.001156,0.011795,-0.012651
3.16000,-0.006499,-0.054259,-0.001480
3.16100,-0.008442,-0.052640,-0.009737
3.16200,0.016814,-0.040335,0.006938
3.16300,0.011957,-0.122417,0.001272
3.16400,0.001272,-0.133102,0.005481
3.16500,0.000139,-0.074334,-0.005528
3.16600,-0.003747,-0.044869,0.005319
3.16700,0.000139,0.071535,0.011795
3.16800,0.001596,0.104076,-0.004556
3.16900,0.017138,-0.043250,-0.002937
3.17000,0.010014,-0.046488,-0.004233
3.17100,0.012119,0.023290,0.008719
3.17200,0.008557,-0.055878,-0.000833
3.17300,0.018757,-0.070448,0.003700
3.17400,0.037213,-0.407356,-0.003261
3.17500,0.032680,-0.588680,0.008557
3.17600,0.016005,-0.411403,0.008234
3.17700,-0.008604,-0.326893,0.009853
3.17800,-0.051830,0.208500,0.004510
3.17900,-0.025441,0.349026,0.007586
3.18000,0.013738,-0.098780,0.002567
3.18100,-0.013946,0.060202,0.012605
3.18200,-0.007956,0.019566,0.007748
3.18300,-0.021394,0.225985,-0.004233
3.18400,-0.028193,0.317456,0.003053
3.18500,-0.027708,-0.024470,0.001758
3.18600,-0.010223,0.254964,0.008072
3.18700,0.001272,0.089991,0.012443
3.18800,0.009367,0.244279,-0.000509
3.18900,0.012281,0.216918,-0.000023
3.19000,0.005319,0.094686,-0.004718
3.19100,0.018919,0.192634,0.005805
3.19200,0.006129,-0.017994,0.001758
3.19300,0.010014,0.105372,0.002243
3.19400,-0.001156,-0.036288,-0.015241
3.19500,-0.021394,-0.060573,-0.005204
3.19600,-0.044059,-0.145083,-0.000023
3.19700,-0.046649,-0.165967,0.014224
3.19800,-0.029650,-0.131645,0.003377
3.19900,-0.023984,0.017624,0.006291
3.20000,-0.015241,0.230680,-0.011680
3.20100,0.005643,0.287667,0.003377
3.20200,0.026528,-0.094895,0.000786
3.20300,0.045632,-0.463372,-0.005851
3.20400,0.025233,-0.610212,0.002891
3.20500,0.025395,-0.687275,-0.006499
3.20600,0.006453,-0.469038,0.001758
3.20700,-0.025765,-0.156739,0.003539
3.20800,-0.020746,0.339150,-0.007956
3.20900,-0.046488,0.129494,-0.005042
3.21000,-0.060896,0.377844,-0.000833
3.21100,-0.037583,0.678648,-0.004718
3.21200,0.003539,0.342388,0.003539
3.21300,0.040775,0.047574,0.007586
3.21400,0.043041,-0.022365,0.007748
3.21500,0.023128,-0.015889,0.014386
3.21600,0.036080,-0.019775,0.015519
3.21700,0.011310,-0.013299,-0.006013
3.21800,-0.007794,-0.022041,-0.042116
3.21900,-0.022203,-0.016213,-0.038717
3.22000,-0.008118,0.001596,-0.032079
3.22100,0.009205,0.102619,-0.019613
3.22200,0.007910,0.036889,-0.009089
3.22300,0.020538,-0.033698,-0.009251
3.22400,0.027661,-0.016537,0.010500
3.22500,0.009043,0.007910,0.022642
3.22600,0.003700,-0.025441,0.031870
3.22700,-0.001966,-0.017670,0.029604
3.22800,0.001596,-0.021232,0.019728
3.22900,-0.005204,-0.018965,0.008719
3.23000,-0.007632,-0.008766,0.015195
3.23100,-0.010870,0.068135,0.000301
3.23200,-0.019775,0.015195,0.014548
3.23300,0.009205,-0.045354,0.007910
3.23400,0.011957,-0.094571,-0.001318
3.23500,-0.009089,-0.178110,0.002081
3.23600,-0.018965,-0.161920,0.003377
3.23700,-0.037259,-0.003747,0.001272
3.23800,-0.025765,0.016814,-0.005851
3.23900,-0.016375,-0.060896,0.002081
3.24000,-0.015727,0.020700,0.011148
3.24100,-0.011842,0.100353,0.009529
3.24200,0.006129,0.112981,0.004186
3.24300,0.008881,0.019243,-0.001480
3.24400,0.004186,-0.038555,0.033489
3.24500,0.005967,-0.057820,0.074449
3.24600,-0.002614,-0.052478,0.049032
3.24700,-0.017994,-0.050697,0.012929
3.24800,0.005319,-0.041954,-0.029488
3.24900,0.019081,0.001272,-0.068991
3.25000,0.013090,-0.005366,-0.076277
3.25100,0.007100,-0.004556,-0.062192
3.25200,-0.006499,-0.094733,-0.041793
3.25300,-0.004880,-0.139578,-0.016213
3.25400,-0.006175,-0.094571,-0.001156
3.25500,-0.014432,0.072183,0.018433
3.25600,-0.013461,0.044498,0.027823
3.25700,0.017300,-0.003747,0.015195
3.25800,0.026042,0.090153,0.008557
3.25900,0.016005,0.096467,0.004672
3.26000,0.023614,0.101000,-0.003261
3.26100,0.021671,0.040937,-0.001480
3.26200,-0.008927,0.039803,0.000463
3.26300,-0.026412,-0.046811,0.002405
3.26400,-0.024631,-0.096514,0.002081
3.26500,-0.004880,0.002081,-0.003099
3.26600,0.010500,0.017300,-0.002290
3.26700,0.002081,-0.039040,-0.005204
3.26800,0.007586,-0.066401,-0.034345
3.26900,-0.006499,-0.035802,-0.065429
3.27000,0.001758,0.024909,-0.057173
3.27100,0.009043,0.061821,-0.049078
3.27200,0.013252,0.059393,-0.032079
3.27300,0.007748,-0.000185,-0.002614
3.27400,-0.025279,-0.089552,0.017138
3.27500,-0.028355,-0.106875,0.040289
